wave,flux,flux_err
1350.0,6.303547366823999e-15,1.1623536242327755e-16
1351.0,6.2920118822372465e-15,1.1678385065526693e-16
1352.0,6.2804488100290734e-15,1.1704346581279804e-16
1353.0,6.269255797446663e-15,1.1716970427796953e-16
1354.0,6.2579100223685225e-15,1.1737489342556676e-16
1355.0,6.2470758997853625e-15,1.187866468916492e-16
1356.0,6.23542551251076e-15,1.184885405376628e-16
1357.0,6.224078350033284e-15,1.1838950251132003e-16
1358.0,6.212921590058633e-15,1.1916090762688774e-16
1359.0,6.201748423821087e-15,1.196926059997467e-16
1360.0,6.1900194917949564e-15,1.2002577957423217e-16
1361.0,6.178954501903158e-15,1.199079825469372e-16
1362.0,6.167867174375875e-15,1.2056021775188979e-16
1363.0,6.156513272368173e-15,1.2055971853082644e-16
1364.0,6.145262860527692e-15,1.2185777261908802e-16
1365.0,6.134422940934672e-15,1.2295650584369322e-16
1366.0,6.123273723575741e-15,1.2218927297521565e-16
1367.0,6.112072820822922e-15,1.2342666252316958e-16
1368.0,6.100611094698912e-15,1.2288344958547012e-16
1369.0,6.089392706049233e-15,1.231814466566514e-16
1370.0,6.0783041370319055e-15,1.245125683541496e-16
1371.0,6.067394210415461e-15,1.2446479460145421e-16
1372.0,6.056406874443698e-15,1.253004421743422e-16
1373.0,6.0451718599650346e-15,1.2468378454817646e-16
1374.0,6.033856601396624e-15,1.254733171347743e-16
1375.0,6.0226782029909415e-15,1.2555397587253567e-16
1376.0,6.0122963062418495e-15,1.268719020357962e-16
1377.0,6.000910699929266e-15,1.2653875342564784e-16
1378.0,5.990267836998646e-15,1.2749379952639834e-16
1379.0,5.978833170778142e-15,1.2743642578936132e-16
1380.0,5.968131358204649e-15,1.286148251998069e-16
1381.0,5.957538872963629e-15,1.2842461709090963e-16
1382.0,5.946292472325529e-15,1.2783962426538412e-16
1383.0,5.935260365270957e-15,1.2716588580431593e-16
1384.0,5.924398732730218e-15,1.2649086990519223e-16
1385.0,5.913465219237229e-15,1.2592218869785808e-16
1386.0,5.90295814562816e-15,1.2560405335346964e-16
1387.0,5.891980494697676e-15,1.2503233083313465e-16
1388.0,5.881017928219146e-15,1.244619430923451e-16
1389.0,5.870001857990712e-15,1.237077604162394e-16
1390.0,5.859414214725522e-15,1.2358404982592057e-16
1391.0,5.848758048769004e-15,1.2274266944482544e-16
1392.0,5.837958556752785e-15,1.2212335973781795e-16
1393.0,5.827030445714701e-15,1.218886283850966e-16
1394.0,5.816260929040777e-15,1.2126007626256028e-16
1395.0,5.80551188061947e-15,1.204263999502008e-16
1396.0,5.7950464859663365e-15,1.2008708029602602e-16
1397.0,5.783883282252373e-15,1.1945475408407705e-16
1398.0,5.773180474983812e-15,1.1920893707246282e-16
1399.0,5.7626277177321944e-15,1.1867937134449159e-16
1400.0,5.751917349769876e-15,1.1801823816398976e-16
1401.0,5.741430268438349e-15,1.176431692752234e-16
1402.0,5.73054379918226e-15,1.168704180989074e-16
1403.0,5.719997975908853e-15,1.1660500480345055e-16
1404.0,5.709458306299031e-15,1.1631430175723746e-16
1405.0,5.698742101651991e-15,1.1539574760905952e-16
1406.0,5.6884943035156575e-15,1.1501769708205658e-16
1407.0,5.678083115320269e-15,1.1457406698444808e-16
1408.0,5.667471023916425e-15,1.1411231114968425e-16
1409.0,5.656942110693697e-15,1.1355302183400244e-16
1410.0,5.646620383233112e-15,1.1286933854897082e-16
1411.0,5.635826354499203e-15,1.1241039839690336e-16
1412.0,5.6251419463963e-15,1.1207043234349166e-16
1413.0,5.615167374818467e-15,1.1151751982819397e-16
1414.0,5.604473658136897e-15,1.1102386682460221e-16
1415.0,5.5944375095244225e-15,1.1052267061456741e-16
1416.0,5.583683841204795e-15,1.101874974091322e-16
1417.0,5.573189796343335e-15,1.0981330002239044e-16
1418.0,5.563345777679026e-15,1.0924377652783812e-16
1419.0,5.552900130439349e-15,1.0888740994895124e-16
1420.0,5.542322932908429e-15,1.0856867028820121e-16
1421.0,5.532249390015281e-15,1.0784481272808972e-16
1422.0,5.521494012279962e-15,1.073298622859178e-16
1423.0,5.511575751839484e-15,1.06851843662983e-16
1424.0,5.501017914336834e-15,1.0639793157898335e-16
1425.0,5.491096120048748e-15,1.0581011851726664e-16
1426.0,5.480675842748495e-15,1.0567167887887629e-16
1427.0,5.47089244232067e-15,1.053995085852217e-16
1428.0,5.460245074325538e-15,1.0493524495433492e-16
1429.0,5.450169756163161e-15,1.043968922114686e-16
1430.0,5.4402886963091274e-15,1.0382771149950843e-16
1431.0,5.4295425431972436e-15,1.0347470046946004e-16
1432.0,5.41954747184652e-15,1.02929340448251e-16
1433.0,5.409705771320935e-15,1.0246888018087332e-16
1434.0,5.399788167613766e-15,1.0221987190048482e-16
1435.0,5.389042582506603e-15,1.017724279914282e-16
1436.0,5.378985204044893e-15,1.0112987599730164e-16
1437.0,5.36924062571397e-15,1.011485131384616e-16
1438.0,5.359135353044359e-15,1.0050473177198092e-16
1439.0,5.3490365032777e-15,9.98895431575289e-17
1440.0,5.339290187966293e-15,9.968037046678599e-17
1441.0,5.329143323321319e-15,9.904615208404867e-17
1442.0,5.3193668067203046e-15,9.886283595793957e-17
1443.0,5.3091913392576e-15,9.823540616552899e-17
1444.0,5.299337821922665e-15,9.826850323272385e-17
1445.0,5.289108242571405e-15,9.763632211633924e-17
1446.0,5.279298677531353e-15,9.7470915854744e-17
1447.0,5.269584291237681e-15,9.687674265819646e-17
1448.0,5.259966630801762e-15,9.629927305780686e-17
1449.0,5.2500805547823235e-15,9.612914437480826e-17
1450.0,5.239787763601297e-15,9.551317542606197e-17
1451.0,5.230144132773714e-15,9.536764110685902e-17
1452.0,5.22009219503635e-15,9.555189307212795e-17
1453.0,5.2103634187863934e-15,9.558658085619795e-17
1454.0,5.201162503498332e-15,9.494108180124362e-17
1455.0,5.19141948666206e-15,9.544886706736453e-17
1456.0,5.181327098689254e-15,9.6164509949405e-17
1457.0,5.171606551795989e-15,9.588941504712003e-17
1458.0,5.1616691271954325e-15,9.652988048262907e-17
1459.0,5.152341104600044e-15,9.633246895361769e-17
1460.0,5.1426861880219225e-15,9.664593555143253e-17
1461.0,5.132732166251233e-15,9.708974452048307e-17
1462.0,5.123442052252052e-15,9.700648738804516e-17
1463.0,5.113720865623011e-15,9.733572001636915e-17
1464.0,5.103731494058348e-15,9.798076209634738e-17
1465.0,5.0943867909891244e-15,9.764116381498134e-17
1466.0,5.0847123528193945e-15,9.803345056726625e-17
1467.0,5.075483385283579e-15,9.782869320372787e-17
1468.0,5.0655758931714746e-15,9.863523485690838e-17
1469.0,5.0565226029700786e-15,9.803423693892698e-17
1470.0,5.046467685600116e-15,9.915084079326848e-17
1471.0,5.037494209913569e-15,9.846311437284454e-17
1472.0,5.027518257675645e-15,9.901453576847332e-17
1473.0,5.01826623131124e-15,9.915827665120051e-17
1474.0,5.008782661756214e-15,9.960529857070029e-17
1475.0,4.99927496094076e-15,9.944772976359221e-17
1476.0,4.9899480470021425e-15,9.961574729035275e-17
1477.0,4.9804370020678575e-15,9.955641186371711e-17
1478.0,4.9713536136734775e-15,9.959495589497947e-17
1479.0,4.9620499013489224e-15,9.958956672788624e-17
1480.0,4.952392618195393e-15,9.998774751270099e-17
1481.0,4.9430553404320366e-15,1.0024872081984051e-16
1482.0,4.933782674115172e-15,1.0039831851650369e-16
1483.0,4.9245155027235705e-15,1.0052773680778322e-16
1484.0,4.915352774081206e-15,1.0014967943424658e-16
1485.0,4.906176085592637e-15,1.0055372941886664e-16
1486.0,4.897218622802064e-15,9.96600654384829e-17
1487.0,4.887070666741376e-15,1.0163776674484746e-16
1488.0,4.878132827819142e-15,1.0124141848858478e-16
1489.0,4.869174749862948e-15,1.0075790703304471e-16
1490.0,4.860071717357063e-15,1.0103825566296219e-16
1491.0,4.850531227361527e-15,1.0135064623167618e-16
1492.0,4.841625886097176e-15,1.0113503434093488e-16
1493.0,4.83200160730438e-15,1.0194179212987554e-16
1494.0,4.823036803877927e-15,1.0134736705373826e-16
1495.0,4.813871828831831e-15,1.0069682689217815e-16
1496.0,4.804792587037324e-15,1.0083323885596752e-16
1497.0,4.795737229887609e-15,1.0050965244142176e-16
1498.0,4.7868530168812245e-15,1.0009438621065141e-16
1499.0,4.7775615560962895e-15,9.936627087991842e-17
1500.0,4.768460513936515e-15,9.876298209923874e-17
1501.0,4.760087059729817e-15,9.881514597750695e-17
1502.0,4.750968946495196e-15,9.82298816325361e-17
1503.0,4.741838670769953e-15,9.764688304019257e-17
1504.0,4.7327462988666965e-15,9.715726042988778e-17
1505.0,4.723987974231689e-15,9.710792560773364e-17
1506.0,4.7150940952389e-15,9.680459862310328e-17
1507.0,4.706130831493057e-15,9.643670511403948e-17
1508.0,4.697200770502113e-15,9.609002016219669e-17
1509.0,4.688160901543741e-15,9.568515822931404e-17
1510.0,4.679373189469159e-15,9.459338249672423e-17
1511.0,4.670742975911089e-15,9.466635351715053e-17
1512.0,4.6615037963033684e-15,9.410548492156049e-17
1513.0,4.653050416738497e-15,9.425362921089183e-17
1514.0,4.644202475643049e-15,9.377180020645805e-17
1515.0,4.635515814494081e-15,9.3185516345258e-17
1516.0,4.626472015158413e-15,9.284952606015899e-17
1517.0,4.617827902556537e-15,9.279379467910207e-17
1518.0,4.609062348254763e-15,9.201232049672761e-17
1519.0,4.60084579988887e-15,9.263974605989646e-17
1520.0,4.591632694030781e-15,9.115754481790504e-17
1521.0,4.582903944925103e-15,9.12982994533476e-17
1522.0,4.574445164401204e-15,9.139070195719673e-17
1523.0,4.565345131382605e-15,8.981332567338146e-17
1524.0,4.5570087502991405e-15,8.999232559284928e-17
1525.0,4.548313891495946e-15,9.009398831782879e-17
1526.0,4.5394252089266835e-15,8.875130510947007e-17
1527.0,4.531238138171279e-15,8.928619225379485e-17
1528.0,4.522624380846207e-15,8.852547305744422e-17
1529.0,4.513721056485374e-15,8.796870275709646e-17
1530.0,4.505042822805057e-15,8.800187476332502e-17
1531.0,4.496867142270403e-15,8.76004024424393e-17
1532.0,4.48816292064368e-15,8.754646054327865e-17
1533.0,4.479517055275061e-15,8.659748604525977e-17
1534.0,4.471227383192399e-15,8.702174158927469e-17
1535.0,4.463325884942946e-15,8.689532340272398e-17
1536.0,4.454284925914864e-15,8.553235910682818e-17
1537.0,4.446094470377137e-15,8.618987049811692e-17
1538.0,4.437293914387581e-15,8.502132096430503e-17
1539.0,4.428816139580608e-15,8.46694014235095e-17
1540.0,4.42071078167485e-15,8.51614756238594e-17
1541.0,4.4122615554310124e-15,8.437911309807667e-17
1542.0,4.403665055421027e-15,8.367281078249064e-17
1543.0,4.395721819040137e-15,8.403969085502067e-17
1544.0,4.3869234567104895e-15,8.357151830754867e-17
1545.0,4.3786807257698e-15,8.317204392403767e-17
1546.0,4.3706697309729555e-15,8.301990331852372e-17
1547.0,4.362447169556698e-15,8.268661481495463e-17
1548.0,4.354321048843357e-15,8.248428490602441e-17
1549.0,4.34550234361905e-15,8.174385648094548e-17
1550.0,4.337519779168891e-15,8.150487013881527e-17
1551.0,4.3294561338627575e-15,8.118780245975457e-17
1552.0,4.3213108613346326e-15,8.098039341074651e-17
1553.0,4.312678316234132e-15,8.097352166039723e-17
1554.0,4.304667271077468e-15,8.070516221925078e-17
1555.0,4.296644537996416e-15,8.043863800576778e-17
1556.0,4.288584536749073e-15,8.012746718138439e-17
1557.0,4.280109229326968e-15,7.941749422104259e-17
1558.0,4.2718478479329515e-15,7.907245356227513e-17
1559.0,4.263889135985273e-15,7.889233236210121e-17
1560.0,4.2555454712671034e-15,7.839704320264808e-17
1561.0,4.247635637819222e-15,7.860735441179317e-17
1562.0,4.23972431370822e-15,7.841758796693921e-17
1563.0,4.231819397917062e-15,7.81995487884495e-17
1564.0,4.2239009721521006e-15,7.798854770670453e-17
1565.0,4.215850834010551e-15,7.776643205689845e-17
1566.0,4.2078258738828905e-15,7.759344589358315e-17
1567.0,4.1997599116194986e-15,7.7387017371106e-17
1568.0,4.1917222602861275e-15,7.72242931392587e-17
1569.0,4.183685748494022e-15,7.706328772065056e-17
1570.0,4.175630574548865e-15,7.690415605177855e-17
1571.0,4.167577008254678e-15,7.58313022548348e-17
1572.0,4.160208687455113e-15,7.615625635519445e-17
1573.0,4.152194924752597e-15,7.596724196727011e-17
1574.0,4.144221910259206e-15,7.575470344959302e-17
1575.0,4.136220237877752e-15,7.55603101499172e-17
1576.0,4.128201908939498e-15,7.468104997947697e-17
1577.0,4.120178733369402e-15,7.460199307393261e-17
1578.0,4.112148453156233e-15,7.385164006820845e-17
1579.0,4.104323537878003e-15,7.384815736170269e-17
1580.0,4.097245939739724e-15,7.45877767447104e-17
1581.0,4.089189404273657e-15,7.345069081879719e-17
1582.0,4.081181836819412e-15,7.337988244838238e-17
1583.0,4.073099916584225e-15,7.311271169393198e-17
1584.0,4.065698868561155e-15,7.278122782421742e-17
1585.0,4.058160327293643e-15,7.297861754664991e-17
1586.0,4.050068979505218e-15,7.225278200094743e-17
1587.0,4.042264129244102e-15,7.175789851699364e-17
1588.0,4.035098477564569e-15,7.261135714123417e-17
1589.0,4.026975737230353e-15,7.227235310916719e-17
1590.0,4.01965032028643e-15,7.180147047901431e-17
1591.0,4.011991221353897e-15,7.136347101537714e-17
1592.0,4.004464377302169e-15,7.157019932570772e-17
1593.0,3.996473197502045e-15,7.080069716175654e-17
1594.0,3.988818176584569e-15,7.096808291897647e-17
1595.0,3.9814179197952514e-15,7.094385942541396e-17
1596.0,3.973680577921933e-15,7.059588031356817e-17
1597.0,3.966191996208783e-15,7.064157462539409e-17
1598.0,3.958688109873977e-15,7.023223440707941e-17
1599.0,3.950682745760208e-15,6.978271313244693e-17
1600.0,3.943915988819986e-15,7.01924199772387e-17
1601.0,3.935913978850378e-15,6.90276507355897e-17
1602.0,3.9290203212742975e-15,6.988182165569823e-17
1603.0,3.921104471711883e-15,6.901286649993895e-17
1604.0,3.913819854904185e-15,6.940795047819273e-17
1605.0,3.906284725253231e-15,6.904128033257096e-17
1606.0,3.898993779239819e-15,6.845679860663751e-17
1607.0,3.891347295491908e-15,6.890350798976459e-17
1608.0,3.88413144145404e-15,6.848883625356902e-17
1609.0,3.876477611223857e-15,6.800360326844488e-17
1610.0,3.869241422666979e-15,6.846682720139941e-17
1611.0,3.861234060845622e-15,6.740852060320983e-17
1612.0,3.8542989764746655e-15,6.738616799119131e-17
1613.0,3.8474489539677534e-15,6.784413605935084e-17
1614.0,3.839353433476684e-15,6.671256055105006e-17
1615.0,3.832514560610137e-15,6.759284579126655e-17
1616.0,3.82515219935889e-15,6.701889745839145e-17
1617.0,3.817528443235159e-15,6.654437618747712e-17
1618.0,3.810390016073707e-15,6.63083078053893e-17
1619.0,3.803289850657913e-15,6.617585326495245e-17
1620.0,3.7963777899173266e-15,6.689433438593017e-17
1621.0,3.788273692038867e-15,6.577451780536529e-17
1622.0,3.781353595649802e-15,6.594471016716275e-17
1623.0,3.774434252666543e-15,6.612512560250034e-17
1624.0,3.7671033855183276e-15,6.574790195613437e-17
1625.0,3.760131003016513e-15,6.588682989267857e-17
1626.0,3.752431275500613e-15,6.542768089093715e-17
1627.0,3.7454450763598876e-15,6.554362545199306e-17
1628.0,3.738134317037449e-15,6.519037112345575e-17
1629.0,3.7311967364527885e-15,6.441839045372688e-17
1630.0,3.724203543408436e-15,6.454431568073174e-17
1631.0,3.717227757061108e-15,6.468745616887982e-17
1632.0,3.7098696872581906e-15,6.419153060485726e-17
1633.0,3.702892905683665e-15,6.434443830986365e-17
1634.0,3.695972230927547e-15,6.449954674334567e-17
1635.0,3.689122547775599e-15,6.466316166500863e-17
1636.0,3.681157558573545e-15,6.36085107268623e-17
1637.0,3.674306753718104e-15,6.375579384374436e-17
1638.0,3.6675064368740544e-15,6.395815849461106e-17
1639.0,3.6606702882388605e-15,6.411780700861245e-17
1640.0,3.653424438279078e-15,6.268584453060165e-17
1641.0,3.646599154159914e-15,6.291427597219733e-17
1642.0,3.639770687017538e-15,6.31388752065869e-17
1643.0,3.632772710855357e-15,6.316288162597438e-17
1644.0,3.625923377210851e-15,6.337644796790871e-17
1645.0,3.618737803697908e-15,6.283956009860959e-17
1646.0,3.611881879551306e-15,6.224278483527517e-17
1647.0,3.604997737244933e-15,6.239135395384847e-17
1648.0,3.598139653341114e-15,6.263071736912582e-17
1649.0,3.5912668773034836e-15,6.248133831001299e-17
1650.0,3.584229570848475e-15,6.179025604797813e-17
1651.0,3.577319075117836e-15,6.196172023897406e-17
1652.0,3.570423102397154e-15,6.165193070747017e-17
1653.0,3.5634973898782725e-15,6.126861205531962e-17
1654.0,3.5563864665573385e-15,6.115400579405415e-17
1655.0,3.5502502862303923e-15,6.144411006704998e-17
1656.0,3.5433458367392023e-15,6.120905005937809e-17
1657.0,3.536487890058521e-15,6.146969398963433e-17
1658.0,3.5295696426209205e-15,6.06193145686626e-17
1659.0,3.5226220663958827e-15,6.083874406638795e-17
1660.0,3.516462770821946e-15,6.063394314322989e-17
1661.0,3.5096370289715207e-15,6.103204685581036e-17
1662.0,3.5026833858017475e-15,6.04421575264803e-17
1663.0,3.4957332187210686e-15,6.036790585807352e-17
1664.0,3.489587435200573e-15,6.024324243540376e-17
1665.0,3.4826131390508104e-15,6.040903961992262e-17
1666.0,3.476018459833658e-15,6.013747065032772e-17
1667.0,3.4691063025558856e-15,6.037639067511727e-17
1668.0,3.462905494612297e-15,6.02363616659853e-17
1669.0,3.4559543607542103e-15,5.941495033368481e-17
1670.0,3.4497308145063636e-15,6.024788889080243e-17
1671.0,3.4428075514471974e-15,5.950284720414182e-17
1672.0,3.4358188595187003e-15,5.96134020435093e-17
1673.0,3.429967797298553e-15,6.012691691878646e-17
1674.0,3.423096047879572e-15,5.922244776883932e-17
1675.0,3.416283277365883e-15,5.952077073285463e-17
1676.0,3.409859744036382e-15,5.901084497926641e-17
1677.0,3.40351376206254e-15,5.985523380446629e-17
1678.0,3.3966624149741473e-15,5.901671167784174e-17
1679.0,3.39064339888216e-15,5.892550567683251e-17
1680.0,3.3837898072085862e-15,5.921781896581078e-17
1681.0,3.3769661188705086e-15,5.843671526332183e-17
1682.0,3.370896324858103e-15,5.834738087379325e-17
1683.0,3.3644031206588174e-15,5.914733165137837e-17
1684.0,3.357486083173984e-15,5.825252245553233e-17
1685.0,3.3515309098530988e-15,5.835838863911354e-17
1686.0,3.344659315257599e-15,5.863213203954596e-17
1687.0,3.3385664538686926e-15,5.849473460671129e-17
1688.0,3.331881095267457e-15,5.803240521049675e-17
1689.0,3.3260195480682962e-15,5.826909589761943e-17
1690.0,3.3191750356164843e-15,5.857581997440967e-17
1691.0,3.3130718378514e-15,5.84755506215887e-17
1692.0,3.3061836993702276e-15,5.772531013576484e-17
1693.0,3.3004319560925253e-15,5.816540787203875e-17
1694.0,3.2936056904265042e-15,5.746327579547482e-17
1695.0,3.2874712160271154e-15,5.733651789990178e-17
1696.0,3.281253817269827e-15,5.794054213988624e-17
1697.0,3.274877101973156e-15,5.822695354351553e-17
1698.0,3.2687667746942997e-15,5.81297334537646e-17
1699.0,3.2619586984713087e-15,5.750993288352313e-17
1700.0,3.2561629498142105e-15,5.7891616952657e-17
1701.0,3.2492807565029864e-15,5.715303370570525e-17
1702.0,3.2435220521302833e-15,5.763143232239874e-17
1703.0,3.2374069277190675e-15,5.756025209726488e-17
1704.0,3.231067889790939e-15,5.730035493128244e-17
1705.0,3.2246275488283658e-15,5.711483891800112e-17
1706.0,3.21859041524392e-15,5.720496610071343e-17
1707.0,3.212241094662531e-15,5.706375344308851e-17
1708.0,3.2059985841376507e-15,5.704414483785189e-17
1709.0,3.1999191548275293e-15,5.709022262354838e-17
1710.0,3.1940703147658805e-15,5.74577844882357e-17
1711.0,3.1879691897207363e-15,5.744875800201855e-17
1712.0,3.1813658190087125e-15,5.613252985984916e-17
1713.0,3.1752567327795396e-15,5.61234076126252e-17
1714.0,3.1695039186915756e-15,5.65164182774268e-17
1715.0,3.163274124055021e-15,5.634700148264364e-17
1716.0,3.1570070632436988e-15,5.61672323764947e-17
1717.0,3.151281872530745e-15,5.652281479191293e-17
1718.0,3.1452333401395615e-15,5.644526932479042e-17
1719.0,3.1388384130743884e-15,5.629633511905561e-17
1720.0,3.1328979339864262e-15,5.634927779237152e-17
1721.0,3.127100474712821e-15,5.663592399227732e-17
1722.0,3.1207770919303165e-15,5.645806279913671e-17
1723.0,3.114711872530455e-15,5.643072541239533e-17
1724.0,3.1089248978911144e-15,5.680825540949217e-17
1725.0,3.1028450762873757e-15,5.565383741890532e-17
1726.0,3.0971288055519e-15,5.607471880330415e-17
1727.0,3.0910830371242415e-15,5.624624753648436e-17
1728.0,3.085139341294804e-15,5.635332602075006e-17
1729.0,3.078886435935215e-15,5.618405983100434e-17
1730.0,3.0731924656074687e-15,5.558800676744999e-17
1731.0,3.0671785300404e-15,5.559557495758996e-17
1732.0,3.0615642279150186e-15,5.62025000196345e-17
1733.0,3.05570705649883e-15,5.64384236210931e-17
1734.0,3.04935505351119e-15,5.5175411657016054e-17
1735.0,3.0432566164860572e-15,5.516428967444798e-17
1736.0,3.037436074771632e-15,5.556172463463833e-17
1737.0,3.0317414237845337e-15,5.520827897340521e-17
1738.0,3.026037001285016e-15,5.5438874681793054e-17
