wave,flux,flux_err
1350.0,1.1858660275885783e-13,7.705004750049608e-16
1351.0,1.183297512681354e-13,7.641900786133668e-16
1352.0,1.1808340766999642e-13,7.623424523303268e-16
1353.0,1.1783894308427175e-13,7.6186902352707705e-16
1354.0,1.176024836352428e-13,7.587325145048283e-16
1355.0,1.1735078539368209e-13,7.573233387896118e-16
1356.0,1.1711738675300412e-13,7.548126676025154e-16
1357.0,1.1686307760713892e-13,7.522406694223977e-16
1358.0,1.1663100553770147e-13,7.510772782496081e-16
1359.0,1.1639516522449895e-13,7.498355388192782e-16
1360.0,1.1614512598074858e-13,7.464572376654385e-16
1361.0,1.1591088619266168e-13,7.440852648399122e-16
1362.0,1.1567426306077844e-13,7.413453298464839e-16
1363.0,1.154370208725133e-13,7.417616615947272e-16
1364.0,1.1518431858949004e-13,7.392660950288706e-16
1365.0,1.1494945263248603e-13,7.381078665268277e-16
1366.0,1.1471173303735935e-13,7.353797471863254e-16
1367.0,1.1447586429486721e-13,7.330282887672696e-16
1368.0,1.1423466937223104e-13,7.3143348930003e-16
1369.0,1.1399894203085062e-13,7.309486944079408e-16
1370.0,1.1376571155255044e-13,7.302017718936104e-16
1371.0,1.1353313475966813e-13,7.256120374458432e-16
1372.0,1.1329547152322365e-13,7.230479227821863e-16
1373.0,1.1305848368503369e-13,7.2093659351641785e-16
1374.0,1.1282074913390893e-13,7.186067554927842e-16
1375.0,1.1258645653537951e-13,7.16894981306894e-16
1376.0,1.1235591926196445e-13,7.159346348870277e-16
1377.0,1.1212506707373938e-13,7.14978509593079e-16
1378.0,1.1189048551895471e-13,7.104088022266649e-16
1379.0,1.116668393610558e-13,7.108233091143575e-16
1380.0,1.1143129683592595e-13,7.091288523299897e-16
1381.0,1.1119179636761492e-13,7.068197140617887e-16
1382.0,1.1095690104247277e-13,7.023798030224319e-16
1383.0,1.1072784857556257e-13,7.014609195645139e-16
1384.0,1.1050268704538598e-13,7.004867409824157e-16
1385.0,1.1026852895001444e-13,6.98105184514883e-16
1386.0,1.1003371781627686e-13,6.954460689937849e-16
1387.0,1.0981085693419926e-13,6.922802457499541e-16
1388.0,1.0958460651582704e-13,6.913981018408571e-16
1389.0,1.0935811201904203e-13,6.905175316790496e-16
1390.0,1.0913169847361508e-13,6.896422074804658e-16
1391.0,1.0891555889199868e-13,6.870509408232714e-16
1392.0,1.0867960862570689e-13,6.842688790364336e-16
1393.0,1.0844997579992648e-13,6.833508632250721e-16
1394.0,1.0822938185208175e-13,6.802858936312766e-16
1395.0,1.0799894781862873e-13,6.79365907064236e-16
1396.0,1.0777204525970789e-13,6.778820125024242e-16
1397.0,1.0756471479756898e-13,6.755524035244199e-16
1398.0,1.073335217204487e-13,6.76089940564619e-16
1399.0,1.0710529772246745e-13,6.703555563438451e-16
1400.0,1.0688721429144934e-13,6.700012254100198e-16
1401.0,1.0666811775068676e-13,6.674062332482967e-16
1402.0,1.0644603352493995e-13,6.672152935717456e-16
1403.0,1.0621755051933283e-13,6.615935940415228e-16
1404.0,1.0601013215493115e-13,6.62884383224021e-16
1405.0,1.0577680723460417e-13,6.596192447975797e-16
1406.0,1.0557050979623944e-13,6.598703562489576e-16
1407.0,1.0534642933972788e-13,6.55806426007631e-16
1408.0,1.0512450855020844e-13,6.552646379011809e-16
1409.0,1.0490367039666176e-13,6.53794330932057e-16
1410.0,1.0468399870214842e-13,6.500602487277373e-16
1411.0,1.044839340499653e-13,6.492052749687031e-16
1412.0,1.0424571358367819e-13,6.454275134981818e-16
1413.0,1.0404135889805405e-13,6.465872756859357e-16
1414.0,1.0382354834321481e-13,6.440908329007841e-16
1415.0,1.0360815834327939e-13,6.415145830551666e-16
1416.0,1.0340018277404149e-13,6.416741868827116e-16
1417.0,1.0318929620078237e-13,6.3887245142912765e-16
1418.0,1.0296059352836382e-13,6.23182883236168e-16
1419.0,1.0275572860587621e-13,6.245385843277221e-16
1420.0,1.0254212598281128e-13,6.16314590326038e-16
1421.0,1.0232618118037777e-13,6.225572534592436e-16
1422.0,1.021101175634546e-13,6.166973615344035e-16
1423.0,1.0190807803473335e-13,6.178253630382007e-16
1424.0,1.0169789307532408e-13,6.194165935146595e-16
1425.0,1.0148370479830292e-13,6.195003275530518e-16
1426.0,1.0127936275889956e-13,6.157013433069662e-16
1427.0,1.0106446029761395e-13,6.127956988864735e-16
1428.0,1.0086204094613027e-13,6.148694869354282e-16
1429.0,1.0065328625638149e-13,6.170351576264268e-16
1430.0,1.0043535744501773e-13,6.152961103065317e-16
1431.0,1.0023712108812949e-13,6.138421796019339e-16
1432.0,1.0003216294899446e-13,6.118821026625588e-16
1433.0,9.981749556770978e-14,6.124572573635889e-16
1434.0,9.960314536060345e-14,6.090204666026379e-16
1435.0,9.94020698203133e-14,6.081780678434906e-16
1436.0,9.92037121417488e-14,6.067532297723785e-16
1437.0,9.89953389411947e-14,6.027733295498006e-16
1438.0,9.879002831708251e-14,6.027762018938416e-16
1439.0,9.859203318085048e-14,6.00143736912795e-16
1440.0,9.839320670420904e-14,5.993831923355702e-16
1441.0,9.819278180208329e-14,5.985918374869865e-16
1442.0,9.798566832037344e-14,5.966665728506453e-16
1443.0,9.777320041246636e-14,5.939617830137778e-16
1444.0,9.758757426490064e-14,5.951843254284499e-16
1445.0,9.737660081316096e-14,5.901051018401991e-16
1446.0,9.718272873105676e-14,5.876197286831098e-16
1447.0,9.697732415404706e-14,5.873694941223396e-16
1448.0,9.677984305467418e-14,5.860170499893623e-16
1449.0,9.657674101721689e-14,5.847964152058855e-16
1450.0,9.637767059689656e-14,5.837196391028853e-16
1451.0,9.618380340712939e-14,5.8076382575480765e-16
1452.0,9.598708811668518e-14,5.800643554335162e-16
1453.0,9.57897149723122e-14,5.792933052868736e-16
1454.0,9.559038551995226e-14,5.778371142964115e-16
1455.0,9.539646070323637e-14,5.766892516950583e-16
1456.0,9.520114439051e-14,5.745901779447542e-16
1457.0,9.50084436175997e-14,5.71075395572879e-16
1458.0,9.481018716962706e-14,5.703123207191756e-16
1459.0,9.461178050054182e-14,5.695519359416393e-16
1460.0,9.441862227253589e-14,5.66041371045267e-16
1461.0,9.422253746539189e-14,5.639500228887311e-16
1462.0,9.402754083278115e-14,5.628151388501882e-16
1463.0,9.384169282921931e-14,5.640229633450193e-16
1464.0,9.36524880776075e-14,5.611740715707409e-16
1465.0,9.345327786895396e-14,5.604243089862975e-16
1466.0,9.325816619114066e-14,5.573844764166885e-16
1467.0,9.307309482108279e-14,5.549614079845614e-16
1468.0,9.287954529694063e-14,5.550787163572653e-16
1469.0,9.269735479230098e-14,5.543874245520764e-16
1470.0,9.250856809665238e-14,5.517752099152241e-16
1471.0,9.2308481892924e-14,5.51037955354173e-16
1472.0,9.212104668734595e-14,5.46709061160842e-16
1473.0,9.19339262474898e-14,5.468554098255244e-16
1474.0,9.175118293161503e-14,5.490309391517839e-16
1475.0,9.15602987498088e-14,5.431667637464915e-16
1476.0,9.135951734120461e-14,5.424384335507844e-16
1477.0,9.118712067006964e-14,5.400303806809496e-16
1478.0,9.10010890614754e-14,5.412119422419611e-16
1479.0,9.080860745298356e-14,5.359204616241816e-16
1480.0,9.062755877523536e-14,5.377057449694016e-16
1481.0,9.044587552102799e-14,5.366481181847433e-16
1482.0,9.024908653217358e-14,5.333859468598508e-16
1483.0,9.007520406688868e-14,5.310862440766229e-16
1484.0,8.988928538135904e-14,5.321802818722961e-16
1485.0,8.969999595837772e-14,5.27403709625937e-16
1486.0,8.953401547008195e-14,5.308012654798227e-16
1487.0,8.934326283846215e-14,5.265944803297598e-16
1488.0,8.915619994746446e-14,5.25709402837798e-16
1489.0,8.897966055899406e-14,5.221934023483628e-16
1490.0,8.879718084728148e-14,5.23164768711423e-16
1491.0,8.861811699692223e-14,5.206835780047502e-16
1492.0,8.844039112623504e-14,5.21320645441236e-16
1493.0,8.825576015088719e-14,5.161047121578796e-16
1494.0,8.80810250576969e-14,5.192062428578361e-16
1495.0,8.789423551727965e-14,5.150723624197381e-16
1496.0,8.771235674680336e-14,5.143418235619711e-16
1497.0,8.753634316472839e-14,5.117414739266209e-16
1498.0,8.735905324061311e-14,5.095262192341697e-16
1499.0,8.718261301945575e-14,5.105688091009546e-16
1500.0,8.700450790087357e-14,5.067329850821339e-16
1501.0,8.683488898921869e-14,5.066886233780834e-16
1502.0,8.665392764778695e-14,5.055024499420809e-16
1503.0,8.64820671604387e-14,5.039908616167393e-16
1504.0,8.629774735377407e-14,5.036795845705262e-16
1505.0,8.613054222204034e-14,5.021532851735976e-16
1506.0,8.595111456801579e-14,4.994080648793009e-16
1507.0,8.578842031522152e-14,4.991782052701072e-16
1508.0,8.561571552084254e-14,5.003177363065034e-16
1509.0,8.542973558983989e-14,4.94800856052778e-16
1510.0,8.526842403354656e-14,4.952150173524932e-16
1511.0,8.508123663216851e-14,4.947148846628865e-16
1512.0,8.491415317626386e-14,4.928594846822957e-16
1513.0,8.47526493371158e-14,4.914997607715584e-16
1514.0,8.457254255007335e-14,4.88647279283102e-16
1515.0,8.440015592996376e-14,4.912525820429074e-16
1516.0,8.422432856646411e-14,4.872467184551537e-16
1517.0,8.406723324182825e-14,4.869195398607208e-16
1518.0,8.39040122234464e-14,4.856459184282484e-16
1519.0,8.371820208399459e-14,4.809563565623999e-16
1520.0,8.355605230179167e-14,4.830521582872796e-16
1521.0,8.338719845205114e-14,4.82814920408082e-16
1522.0,8.320819984731513e-14,4.79050238710838e-16
1523.0,8.305173437171217e-14,4.781083358235404e-16
1524.0,8.288756378991394e-14,4.763133388984576e-16
1525.0,8.270816113078293e-14,4.771751238971031e-16
1526.0,8.255410233002957e-14,4.757844614687182e-16
1527.0,8.239224177171622e-14,4.756251945476892e-16
1528.0,8.221223924075528e-14,4.707387911075578e-16
1529.0,8.205663057992538e-14,4.701548361278746e-16
1530.0,8.1886099290358e-14,4.701476796595769e-16
1531.0,8.171294316389471e-14,4.608732455230207e-16
1532.0,8.155625955027594e-14,4.603820518637052e-16
1533.0,8.139524283674511e-14,4.613923583645094e-16
1534.0,8.124431045358487e-14,4.584891143806019e-16
1535.0,8.105912875370756e-14,4.542319777295706e-16
1536.0,8.090779906836937e-14,4.51376729642915e-16
1537.0,8.075070422543794e-14,4.508916455354129e-16
1538.0,8.058702612709307e-14,4.49995233255011e-16
1539.0,8.041728032862422e-14,4.405822033707387e-16
1540.0,8.024788514654758e-14,4.416247345330297e-16
1541.0,8.009588058588777e-14,4.3899874627627204e-16
1542.0,7.993899399820553e-14,4.3825984632252573e-16
1543.0,7.978240629365699e-14,4.3727729468559837e-16
1544.0,7.962433687396809e-14,4.3709452843515708e-16
1545.0,7.945368733848231e-14,4.2671348661852086e-16
1546.0,7.930060190880822e-14,4.244286092678826e-16
1547.0,7.91349582033414e-14,4.271580781722434e-16
1548.0,7.898261852715734e-14,4.2445066786532006e-16
1549.0,7.883030645759303e-14,4.2176096450259825e-16
1550.0,7.866524577571948e-14,4.2420992444086703e-16
1551.0,7.851055902770193e-14,4.2239043944040413e-16
1552.0,7.835878131140901e-14,4.1947915604050696e-16
1553.0,7.818747391455765e-14,4.092103204807825e-16
1554.0,7.803550438969583e-14,4.0632419979972734e-16
1555.0,7.78715411467393e-14,4.082493408091764e-16
1556.0,7.77166274484607e-14,4.0652515907577944e-16
1557.0,7.75696712055712e-14,4.066607137688451e-16
1558.0,7.741884886884598e-14,4.0392352962108395e-16
1559.0,7.72696901299092e-14,4.0131017848526457e-16
1560.0,7.712058959299241e-14,3.987187364674903e-16
1561.0,7.696122924864691e-14,4.001944056313432e-16
1562.0,7.681023958350267e-14,3.9830856966390223e-16
1563.0,7.665907696524998e-14,3.964403509935074e-16
1564.0,7.650809724356867e-14,3.9451860919077303e-16
1565.0,7.635795625872489e-14,3.9214512753857773e-16
1566.0,7.620776999100655e-14,3.8978704137189983e-16
1567.0,7.60537968678501e-14,3.890861838426196e-16
1568.0,7.588276021631131e-14,3.7991221367481193e-16
1569.0,7.573124552856917e-14,3.7811277397529053e-16
1570.0,7.557947415315729e-14,3.7633489956527714e-16
1571.0,7.542779982856391e-14,3.745603638684027e-16
1572.0,7.52815010595758e-14,3.7554435557791244e-16
1573.0,7.513022838303504e-14,3.733782081031685e-16
1574.0,7.499929543016092e-14,3.786812764415975e-16
1575.0,7.484898355750912e-14,3.7627656505926416e-16
1576.0,7.469846044605812e-14,3.738780322941229e-16
1577.0,7.455009279794117e-14,3.7078011791077117e-16
1578.0,7.440503893420162e-14,3.6947529901800933e-16
1579.0,7.426077070267124e-14,3.665660045811601e-16
1580.0,7.410828009420767e-14,3.6490625573173444e-16
1581.0,7.395564719964669e-14,3.6326323933797513e-16
1582.0,7.380405511408382e-14,3.612426116845562e-16
1583.0,7.367448256432841e-14,3.4976974218434496e-16
1584.0,7.352257370134924e-14,3.474923341437171e-16
1585.0,7.337570615158684e-14,3.4146823661033986e-16
1586.0,7.322456389673639e-14,3.38705697550918e-16
1587.0,7.309426185508326e-14,3.52089128879482e-16
1588.0,7.295134269767383e-14,3.4965581839006753e-16
1589.0,7.279984848894359e-14,3.4692832263278526e-16
1590.0,7.26488364309337e-14,3.4392213775190206e-16
1591.0,7.251608048074264e-14,3.329323712296609e-16
1592.0,7.236627319990575e-14,3.2823075020233614e-16
1593.0,7.223779966310976e-14,3.4152916037079835e-16
1594.0,7.20860069858096e-14,3.38897594045345e-16
1595.0,7.19417830960444e-14,3.3595082086190067e-16
1596.0,7.18010915596758e-14,3.2691759740232086e-16
1597.0,7.16516799520104e-14,3.2517984633641307e-16
1598.0,7.151375822148504e-14,3.1459949321637225e-16
1599.0,7.137346963258611e-14,3.1121624644239296e-16
1600.0,7.124404914442689e-14,3.2808326523414467e-16
1601.0,7.109494013275895e-14,3.259431992639355e-16
1602.0,7.095377303961022e-14,3.226290924598441e-16
1603.0,7.082172038253082e-14,3.0803648932777757e-16
1604.0,7.067240431250938e-14,3.059432780660581e-16
1605.0,7.054200621864734e-14,3.2190923643083406e-16
1606.0,7.040329767266883e-14,3.1828761789734113e-16
1607.0,7.026819039182351e-14,3.055318701324175e-16
1608.0,7.012374423108683e-14,2.9941239803049607e-16
1609.0,6.99797908571388e-14,2.985171575245658e-16
1610.0,6.98495709277864e-14,3.1553813700905216e-16
1611.0,6.971734959304764e-14,3.0084926981240975e-16
1612.0,6.957517996434365e-14,2.9790062041909316e-16
1613.0,6.942836479471976e-14,2.929966476620046e-16
1614.0,6.931507646400285e-14,3.029202725480358e-16
1615.0,6.917000368802808e-14,2.9742376886569037e-16
1616.0,6.902431372354121e-14,2.914125420084875e-16
1617.0,6.889685100249902e-14,2.933134545712944e-16
1618.0,6.876857913112892e-14,2.9296026853643433e-16
1619.0,6.86213943666883e-14,2.919304373900495e-16
1620.0,6.848457224953382e-14,2.8526686283820545e-16
1621.0,6.836230042382525e-14,2.927531752586129e-16
1622.0,6.822192955047273e-14,2.8838466445672595e-16
1623.0,6.808640989375452e-14,2.7597382736643237e-16
1624.0,6.796543175288661e-14,2.901067737979175e-16
1625.0,6.782992449832075e-14,2.7718609226045197e-16
1626.0,6.768810049806504e-14,2.8699819760708088e-16
1627.0,6.756034642048079e-14,2.8846285394351615e-16
1628.0,6.742668683011586e-14,2.832669206315502e-16
1629.0,6.730094972918423e-14,2.8963315849576873e-16
1630.0,6.716948081839741e-14,2.7505101445030113e-16
1631.0,6.702853097789099e-14,2.9242721907371386e-16
1632.0,6.69123377004204e-14,2.77080377817039e-16
1633.0,6.677101994515962e-14,2.83200799811447e-16
1634.0,6.663879480141369e-14,2.790147459192048e-16
1635.0,6.651765445638184e-14,2.7534266156537734e-16
1636.0,6.638407906984054e-14,2.718448172538697e-16
1637.0,6.624678037836853e-14,2.8508559347283665e-16
1638.0,6.613733644839066e-14,2.8355271948375566e-16
1639.0,6.599474387211137e-14,2.7904439362776974e-16
1640.0,6.588380574471298e-14,2.786870623203498e-16
1641.0,6.574256733704895e-14,2.7181118415987946e-16
1642.0,6.561376152995916e-14,2.764641662943353e-16
1643.0,6.549380834067871e-14,2.8353318384469507e-16
1644.0,6.536141011704353e-14,2.766695093972681e-16
1645.0,6.523635964073692e-14,2.8046031143806283e-16
1646.0,6.511000892371337e-14,2.7652520387783324e-16
1647.0,6.497012490400008e-14,2.7712377829394616e-16
1648.0,6.486039186062757e-14,2.757652490789655e-16
1649.0,6.47188059044858e-14,2.7690283562929723e-16
1650.0,6.460739903030002e-14,2.747796287177919e-16
1651.0,6.447483336877808e-14,2.737413260937596e-16
1652.0,6.435616803192732e-14,2.7541100403162323e-16
1653.0,6.423017396878595e-14,2.705917298009165e-16
1654.0,6.409767574703243e-14,2.729243509928181e-16
1655.0,6.398099015614813e-14,2.695664326386297e-16
1656.0,6.385451713419828e-14,2.708345144231478e-16
1657.0,6.372726502742916e-14,2.699880436772902e-16
1658.0,6.361005133329535e-14,2.6685444527949453e-16
1659.0,6.348962964308394e-14,2.6587189238824875e-16
1660.0,6.335481453104229e-14,2.668621029113753e-16
1661.0,6.32442189224811e-14,2.66325694014046e-16
1662.0,6.313024282716444e-14,2.6649090723746423e-16
1663.0,6.29942106688774e-14,2.6542814903837056e-16
1664.0,6.288028715765382e-14,2.651391962747059e-16
1665.0,6.27526207357537e-14,2.6073619963392083e-16
1666.0,6.263467660385279e-14,2.6766461714653835e-16
1667.0,6.250475105816067e-14,2.5927517022007876e-16
1668.0,6.239921739084014e-14,2.6075317277487756e-16
1669.0,6.225960125225885e-14,2.612821250937277e-16
1670.0,6.21442014191927e-14,2.6138099650896227e-16
1671.0,6.203791883684679e-14,2.627473037234228e-16
1672.0,6.191356628402003e-14,2.5720232632129907e-16
1673.0,6.178736602636821e-14,2.608742821818817e-16
1674.0,6.1665898362063e-14,2.5689187358787787e-16
1675.0,6.156179153263718e-14,2.5793718429457585e-16
1676.0,6.143160392234466e-14,2.5190677249222605e-16
1677.0,6.131413052007454e-14,2.5996363634155773e-16
1678.0,6.118849408388835e-14,2.527502263268875e-16
1679.0,6.108375813004529e-14,2.536008459172747e-16
1680.0,6.09652498974189e-14,2.4955799208741586e-16
1681.0,6.08387608920118e-14,2.53613324014855e-16
1682.0,6.073095513243863e-14,2.566537855610906e-16
1683.0,6.060902272273341e-14,2.513911888815758e-16
1684.0,6.05005998150955e-14,2.505015750451616e-16
1685.0,6.036802548895726e-14,2.4925585358621314e-16
1686.0,6.026021804900429e-14,2.5323622768517996e-16
1687.0,6.014415632184777e-14,2.498944611531167e-16
1688.0,6.002914698315784e-14,2.470081347016186e-16
1689.0,5.99261710067486e-14,2.49058484428242e-16
1690.0,5.980697523930161e-14,2.449997349366032e-16
1691.0,5.967989701097437e-14,2.4928176672466476e-16
1692.0,5.957178812388757e-14,2.522397916265705e-16
1693.0,5.944951699130394e-14,2.4712514011414045e-16
1694.0,5.934500606391974e-14,2.485419428843981e-16
1695.0,5.923092925805729e-14,2.459476665126616e-16
1696.0,5.911454865082314e-14,2.4308923346529557e-16
1697.0,5.901122706457543e-14,2.4518975687419585e-16
1698.0,5.888638167122009e-14,2.4298215579512447e-16
1699.0,5.876424326797318e-14,2.4519927231892305e-16
1700.0,5.866082128439073e-14,2.4731624098087343e-16
1701.0,5.855725946329679e-14,2.49428585361703e-16
1702.0,5.842855424965729e-14,2.4125014754625363e-16
1703.0,5.832505699476968e-14,2.433806435810885e-16
1704.0,5.82168218280528e-14,2.437363679221125e-16
1705.0,5.80984005067496e-14,2.402577005486722e-16
1706.0,5.799228772294712e-14,2.4111433595275967e-16
1707.0,5.788809132142915e-14,2.4297156127971136e-16
1708.0,5.77692098141548e-14,2.3902074678521525e-16
1709.0,5.765847426021901e-14,2.3855713711092093e-16
1710.0,5.755908110843078e-14,2.3930427780000876e-16
1711.0,5.745534032646106e-14,2.414768585083118e-16
1712.0,5.732631458623745e-14,2.3334537065522425e-16
1713.0,5.722251157800879e-14,2.355256478745823e-16
1714.0,5.712043535749946e-14,2.37820871790162e-16
1715.0,5.701058257069916e-14,2.3678405971411423e-16
1716.0,5.689920191202047e-14,2.351859575125337e-16
1717.0,5.679378436662762e-14,2.3524881429029265e-16
1718.0,5.6691630725734564e-14,2.3706138285679533e-16
1719.0,5.657111153053561e-14,2.3206041310345684e-16
1720.0,5.647015273675583e-14,2.3446578032640526e-16
1721.0,5.6366432810486065e-14,2.354842908630378e-16
1722.0,5.625175015577201e-14,2.3260522069514223e-16
1723.0,5.614172674978904e-14,2.3139887773050435e-16
1724.0,5.6040605014200827e-14,2.3382120174101947e-16
1725.0,5.5943817687356204e-14,2.348333041044128e-16
1726.0,5.583443451640197e-14,2.339121587181746e-16
1727.0,5.571910491461164e-14,2.308650651128442e-16
1728.0,5.5616853020457535e-14,2.328158116986444e-16
1729.0,5.551365759729734e-14,2.342839803892357e-16
1730.0,5.541232506131176e-14,2.367189113734548e-16
1731.0,5.5291494680784354e-14,2.317924225712125e-16
1732.0,5.518819760607812e-14,2.332629675217378e-16
1733.0,5.5090129552533675e-14,2.338193021333901e-16
1734.0,5.498776454831479e-14,2.357983223432618e-16
1735.0,5.486875926762315e-14,2.314900390136548e-16
1736.0,5.476350365422354e-14,2.324246082661324e-16
1737.0,5.4661901659179944e-14,2.349041102336953e-16
1738.0,5.4563160212703906e-14,2.364845726695203e-16
