wave,flux,flux_err
1350.0,2.4776378853241145e-14,1.8484251840589952e-16
1351.0,2.471791352794406e-14,1.8463223379920682e-16
1352.0,2.4660015974573305e-14,1.8443047422730262e-16
1353.0,2.460357469974899e-14,1.835772938026047e-16
1354.0,2.4547218456580966e-14,1.8378598693460138e-16
1355.0,2.448979423829118e-14,1.831494365150147e-16
1356.0,2.443147040858306e-14,1.8250460373090021e-16
1357.0,2.4375659727707075e-14,1.820517352537325e-16
1358.0,2.4319352405203397e-14,1.8174948455388786e-16
1359.0,2.426184868843366e-14,1.808851950027612e-16
1360.0,2.4205908318086662e-14,1.8059971180973647e-16
1361.0,2.414904751957383e-14,1.8009379818927389e-16
1362.0,2.4094619264601526e-14,1.794808655800562e-16
1363.0,2.4038033766827372e-14,1.7985746428968804e-16
1364.0,2.398313808904622e-14,1.7909050909364566e-16
1365.0,2.3927332037484966e-14,1.7816636167909077e-16
1366.0,2.3871782446965005e-14,1.780330444624012e-16
1367.0,2.3816205764323675e-14,1.7708415230896878e-16
1368.0,2.3762716108489107e-14,1.7776988452841826e-16
1369.0,2.370523913328716e-14,1.7664558590195023e-16
1370.0,2.3651419989226008e-14,1.7645226862212868e-16
1371.0,2.3596864753107866e-14,1.7581023385275537e-16
1372.0,2.354271913787754e-14,1.7529083748529177e-16
1373.0,2.3489472148191715e-14,1.753705539748829e-16
1374.0,2.3434001214243183e-14,1.7486013238330134e-16
1375.0,2.3378164261806788e-14,1.74027075825484e-16
1376.0,2.332541439387857e-14,1.7285802332818523e-16
1377.0,2.3272238006186316e-14,1.729971242541118e-16
1378.0,2.321803459311837e-14,1.7248041811193054e-16
1379.0,2.3163880976596284e-14,1.7181697995973583e-16
1380.0,2.3112075899386715e-14,1.7213425092757386e-16
1381.0,2.3060820749978247e-14,1.7144607135137708e-16
1382.0,2.3006604457744802e-14,1.7125175221204314e-16
1383.0,2.295426619659382e-14,1.7066678629945027e-16
1384.0,2.2902438137747182e-14,1.708612966344255e-16
1385.0,2.2849498390231672e-14,1.6954728056661863e-16
1386.0,2.2796644832358878e-14,1.6796264868688754e-16
1387.0,2.274480393146829e-14,1.6744884632817067e-16
1388.0,2.2693083478935302e-14,1.670120658407101e-16
1389.0,2.2640164686590978e-14,1.6577719605770546e-16
1390.0,2.2587330135429216e-14,1.6421637614210478e-16
1391.0,2.253539188942315e-14,1.6365763333069365e-16
1392.0,2.2483928293208077e-14,1.6340053746708395e-16
1393.0,2.2434430505237443e-14,1.6141504827110088e-16
1394.0,2.2382765985353458e-14,1.6099962207657994e-16
1395.0,2.233114173917431e-14,1.6053272090052155e-16
1396.0,2.2279753860147493e-14,1.5983513802151551e-16
1397.0,2.223014787601507e-14,1.583263686264816e-16
1398.0,2.2178725899923218e-14,1.5765639799048289e-16
1399.0,2.212859776731265e-14,1.5638215281260898e-16
1400.0,2.207818637147269e-14,1.5577160536728971e-16
1401.0,2.2026311442979764e-14,1.5482715017027586e-16
1402.0,2.1977447918406763e-14,1.535158533866569e-16
1403.0,2.1927450268131836e-14,1.5381288645540964e-16
1404.0,2.1879154403295105e-14,1.5259791330804747e-16
1405.0,2.1828120523465404e-14,1.508453868723571e-16
1406.0,2.1778694560420726e-14,1.5083267414952256e-16
1407.0,2.172903000935769e-14,1.4863196245940658e-16
1408.0,2.167815819431837e-14,1.4841276965323159e-16
1409.0,2.1630346652339166e-14,1.4760151257531753e-16
1410.0,2.158248479285895e-14,1.4684199125926714e-16
1411.0,2.1532370526152604e-14,1.47230071676849e-16
1412.0,2.1483946181195563e-14,1.4590663207256132e-16
1413.0,2.1434766937318482e-14,1.441068998700025e-16
1414.0,2.1388350418896713e-14,1.441713952691553e-16
1415.0,2.1338699274745597e-14,1.4262047018196692e-16
1416.0,2.1289400529992723e-14,1.4189004557276051e-16
1417.0,2.1241970280810234e-14,1.4137465557327685e-16
1418.0,2.119546557095053e-14,1.4040162308823894e-16
1419.0,2.114766853412949e-14,1.4010082343439625e-16
1420.0,2.10998687687873e-14,1.3980533100879012e-16
1421.0,2.1051986053837455e-14,1.3829945765850964e-16
1422.0,2.1004007833091557e-14,1.367123957968462e-16
1423.0,2.0958986520016114e-14,1.3684935423584835e-16
1424.0,2.0910342460134786e-14,1.3562730298519126e-16
1425.0,2.0861465752474703e-14,1.3482680167053186e-16
1426.0,2.0815945173545475e-14,1.3487091834243735e-16
1427.0,2.0768431481108344e-14,1.329972499709148e-16
1428.0,2.0723294345499518e-14,1.3319516082160268e-16
1429.0,2.067761735059003e-14,1.3309095791361773e-16
1430.0,2.0630328833902345e-14,1.3177221408343863e-16
1431.0,2.058451692126382e-14,1.3122260092466153e-16
1432.0,2.0537789294122655e-14,1.3036575878249699e-16
1433.0,2.049118064520739e-14,1.2943535904032412e-16
1434.0,2.044500099818681e-14,1.285055885358999e-16
1435.0,2.040072218878524e-14,1.2830250812235712e-16
1436.0,2.0356032346914952e-14,1.2760041109351292e-16
1437.0,2.0310179522703436e-14,1.2619685840327345e-16
1438.0,2.0263462949700968e-14,1.253789574336998e-16
1439.0,2.0219745879999293e-14,1.2610173166533916e-16
1440.0,2.0174356935097127e-14,1.246830609976162e-16
1441.0,2.0128859097297977e-14,1.2323483006142658e-16
1442.0,2.0084360025222103e-14,1.2334070408926688e-16
1443.0,2.0040543747251338e-14,1.2211979830801956e-16
1444.0,1.9994571069020718e-14,1.208177435330067e-16
1445.0,1.9950847572739603e-14,1.21752672683244e-16
1446.0,1.9906864370664005e-14,1.1941840525895436e-16
1447.0,1.986298746557323e-14,1.20386721887933e-16
1448.0,1.981860396082826e-14,1.1829308754143096e-16
1449.0,1.97750905798016e-14,1.1901902124656881e-16
1450.0,1.9730285742219334e-14,1.1722936287168394e-16
1451.0,1.968812587922173e-14,1.1742939297969478e-16
1452.0,1.9642693764156022e-14,1.1675873325798667e-16
1453.0,1.9599844024205584e-14,1.151137246886504e-16
1454.0,1.9556904049207303e-14,1.1538633786064998e-16
1455.0,1.9511653143612402e-14,1.142408041134224e-16
1456.0,1.947086222082227e-14,1.1417671119857632e-16
1457.0,1.942582099745539e-14,1.1291451285092452e-16
1458.0,1.9384388774515843e-14,1.1312161709944745e-16
1459.0,1.9340607687984548e-14,1.117594806948208e-16
1460.0,1.9298103304338515e-14,1.1197286523174682e-16
1461.0,1.925720684253652e-14,1.1191513975842785e-16
1462.0,1.921388590170491e-14,1.0982669592059692e-16
1463.0,1.9172204063457504e-14,1.1012601801828982e-16
1464.0,1.9129854212382476e-14,1.0894826337916915e-16
1465.0,1.908582808473452e-14,1.091095589489536e-16
1466.0,1.904568759468141e-14,1.0858653671303682e-16
1467.0,1.9004537234165293e-14,1.0864448247910533e-16
1468.0,1.896018393248818e-14,1.0704933901423275e-16
1469.0,1.8920687860095647e-14,1.0621765583686235e-16
1470.0,1.8879757795205834e-14,1.0618058919948758e-16
1471.0,1.883959496742103e-14,1.0566585495360792e-16
1472.0,1.87949815716741e-14,1.0427824591614265e-16
1473.0,1.8754111226368345e-14,1.0413554752690857e-16
1474.0,1.871381213750059e-14,1.0380816920258401e-16
1475.0,1.8673654737010103e-14,1.0329782002044416e-16
1476.0,1.8633529438597434e-14,1.0277316135494874e-16
1477.0,1.8593188265767968e-14,1.0247067611246806e-16
1478.0,1.8553013946442987e-14,1.0195419180747286e-16
1479.0,1.8512274593959076e-14,1.0175208475442735e-16
1480.0,1.8472722534612274e-14,1.0094455311692173e-16
1481.0,1.8431185353335452e-14,1.011978864124501e-16
1482.0,1.839177076874393e-14,1.0035179626266463e-16
1483.0,1.8352353034696698e-14,9.949322802566124e-17
1484.0,1.83122065209239e-14,9.89918229698635e-17
1485.0,1.8271605089911834e-14,9.872643380707988e-17
1486.0,1.8232898890435267e-14,9.796951368521421e-17
1487.0,1.8191103259202385e-14,9.778627437959306e-17
1488.0,1.815080539857713e-14,9.571012704954615e-17
1489.0,1.8112325880964968e-14,9.485762594065516e-17
1490.0,1.807147142823555e-14,9.523878212344786e-17
1491.0,1.8033177744811205e-14,9.431788175534323e-17
1492.0,1.7994623094232125e-14,9.352997342518373e-17
1493.0,1.7956060022903664e-14,9.274472362673169e-17
1494.0,1.7918012528228017e-14,9.49782351182187e-17
1495.0,1.7879520231857106e-14,9.414083323589787e-17
1496.0,1.78412401624757e-14,9.317329293859757e-17
1497.0,1.7802742338618965e-14,9.234159454467022e-17
1498.0,1.7763595805222642e-14,9.18317503437389e-17
1499.0,1.7724470984982826e-14,9.13243235314374e-17
1500.0,1.7685603912693025e-14,9.068737930995507e-17
1501.0,1.7646594139595308e-14,9.010743394857189e-17
1502.0,1.7610858050321254e-14,9.114470762955215e-17
1503.0,1.757259607320117e-14,9.019682893407762e-17
1504.0,1.7534393079784862e-14,8.91850350384927e-17
1505.0,1.7495746887799424e-14,8.836178419727581e-17
1506.0,1.7460245460196924e-14,8.926581104294643e-17
1507.0,1.7422476761735752e-14,8.804854070931713e-17
1508.0,1.7383589429881043e-14,8.743113562102334e-17
1509.0,1.734951113313811e-14,8.76018644624503e-17
1510.0,1.731178525067066e-14,8.632127360570976e-17
1511.0,1.7273351610698454e-14,8.542396855016597e-17
1512.0,1.7237808031470215e-14,8.632924920464491e-17
1513.0,1.719927536561238e-14,8.55594192092382e-17
1514.0,1.716119659383647e-14,8.441960691475562e-17
1515.0,1.7125888968060054e-14,8.523056305864534e-17
1516.0,1.708942783272563e-14,8.336563759178596e-17
1517.0,1.7053944332067786e-14,8.417837544577984e-17
1518.0,1.7015561413302862e-14,8.33073939395939e-17
1519.0,1.6982541921255028e-14,8.282998558886365e-17
1520.0,1.6943993065527364e-14,8.205374582375418e-17
1521.0,1.6908671031478706e-14,8.287068823785435e-17
1522.0,1.6872205114310826e-14,8.146157615995798e-17
1523.0,1.6835888123077523e-14,8.000468590800676e-17
1524.0,1.6801201621471115e-14,8.10023464825869e-17
1525.0,1.6763695775234964e-14,8.007004905211417e-17
1526.0,1.672900853874834e-14,8.107779851839498e-17
1527.0,1.6693801151466405e-14,7.865879588282531e-17
1528.0,1.665911301749711e-14,7.995205328491336e-17
1529.0,1.6621881364394077e-14,7.896052409788184e-17
1530.0,1.6589202055848238e-14,7.883393633539764e-17
1531.0,1.6551887194978677e-14,7.766030559304575e-17
1532.0,1.6518367117745075e-14,7.820841847310224e-17
1533.0,1.64818833765375e-14,7.646732963843871e-17
1534.0,1.6447316033342796e-14,7.76978911485301e-17
1535.0,1.6415138320224234e-14,7.730517715075515e-17
1536.0,1.637743421748807e-14,7.614659535954372e-17
1537.0,1.6345201623748327e-14,7.546405106410357e-17
1538.0,1.6307701873546505e-14,7.538949031983229e-17
1539.0,1.6275449061802175e-14,7.503052616342538e-17
1540.0,1.6240646271927128e-14,7.530221332889146e-17
1541.0,1.6205997528309327e-14,7.420746498979655e-17
1542.0,1.6171044919837078e-14,7.475057784908551e-17
1543.0,1.6138855573859796e-14,7.436974038294604e-17
1544.0,1.6105730344362813e-14,7.36223129246227e-17
1545.0,1.606911950367301e-14,7.319412835674023e-17
1546.0,1.6036716274722673e-14,7.292570186588317e-17
1547.0,1.6003899661627944e-14,7.287054637463323e-17
1548.0,1.5968487413194053e-14,7.24236064944688e-17
1549.0,1.5936601540482378e-14,7.262169232237596e-17
1550.0,1.5902562919173586e-14,7.102545793372912e-17
1551.0,1.586800864968264e-14,7.18638630206251e-17
1552.0,1.5835801236266615e-14,7.150070074557194e-17
1553.0,1.5803582701712136e-14,7.113861965182394e-17
1554.0,1.5771368440210927e-14,7.077849443205444e-17
1555.0,1.573857777295292e-14,7.004227152819915e-17
1556.0,1.5701839572798238e-14,6.941447301749073e-17
1557.0,1.5669912640673676e-14,6.957882025534792e-17
1558.0,1.5637534469722088e-14,6.894436732473491e-17
1559.0,1.5606124074304598e-14,6.863757628871527e-17
1560.0,1.5573455038133984e-14,6.900542384813416e-17
1561.0,1.5541017132255752e-14,6.923616330681832e-17
1562.0,1.550903375601174e-14,6.853822163486757e-17
1563.0,1.547544566265281e-14,6.678164640787503e-17
1564.0,1.544409748593898e-14,6.65080787453254e-17
1565.0,1.5410324668631213e-14,6.739341769381962e-17
1566.0,1.537891307955907e-14,6.709862207649378e-17
1567.0,1.5347517245737257e-14,6.680714118454533e-17
1568.0,1.531609425677687e-14,6.651603454641639e-17
1569.0,1.5284703082371923e-14,6.622800942105095e-17
1570.0,1.5253278488555826e-14,6.594034604011186e-17
1571.0,1.522188417552164e-14,6.565486567008487e-17
1572.0,1.5190454515906973e-14,6.537082607753823e-17
1573.0,1.5159306324766254e-14,6.495822217751409e-17
1574.0,1.5127874227000963e-14,6.467630871058153e-17
1575.0,1.509647553589625e-14,6.439831045427261e-17
1576.0,1.5065040559201486e-14,6.412051035225688e-17
1577.0,1.503361702884509e-14,6.38449334342708e-17
1578.0,1.5002197676016945e-14,6.357133578716426e-17
1579.0,1.4970961453961038e-14,6.32036315017525e-17
1580.0,1.493976732896831e-14,6.269852091215555e-17
1581.0,1.4908364978640197e-14,6.240692196799965e-17
1582.0,1.4877143625362735e-14,6.224774649447784e-17
1583.0,1.4848330119777206e-14,6.370447279515231e-17
1584.0,1.481718254352602e-14,6.326909660312353e-17
1585.0,1.4788200980689807e-14,6.164380399793999e-17
1586.0,1.4756787240766996e-14,6.138382024757283e-17
1587.0,1.4725493828767884e-14,6.103962284512318e-17
1588.0,1.469644035370285e-14,6.18952507225571e-17
1589.0,1.4665307327287296e-14,6.185117479318453e-17
1590.0,1.4636838390561124e-14,6.052332416730207e-17
1591.0,1.4605838471923208e-14,6.020773606504611e-17
1592.0,1.4574775821204025e-14,6.013777452558072e-17
1593.0,1.4546295868119306e-14,6.097593056838502e-17
1594.0,1.4516819146174328e-14,5.959073724272743e-17
1595.0,1.4487015497232623e-14,6.027686013426467e-17
1596.0,1.4456547451217125e-14,6.00256812279036e-17
1597.0,1.442767378882965e-14,5.899288039458142e-17
1598.0,1.439890250586523e-14,5.903029453591342e-17
1599.0,1.4368453477522292e-14,5.873824741794448e-17
1600.0,1.4338106305809395e-14,5.828545795826695e-17
1601.0,1.431150051168435e-14,5.860412491647477e-17
1602.0,1.4281833532130483e-14,5.794556299931893e-17
1603.0,1.4251734979159866e-14,5.799977661672203e-17
1604.0,1.4221067903684206e-14,5.780750039661448e-17
1605.0,1.4195859353413134e-14,5.784195476266776e-17
1606.0,1.4165342603283563e-14,5.772161569279688e-17
1607.0,1.4135341453488104e-14,5.721332093656004e-17
1608.0,1.4107040782954827e-14,5.594305303694949e-17
1609.0,1.407919845433137e-14,5.723244565082772e-17
1610.0,1.4051063294696389e-14,5.572552721491253e-17
1611.0,1.4021067741066616e-14,5.584620269769535e-17
1612.0,1.3993011825051981e-14,5.68679934872183e-17
1613.0,1.396571620482393e-14,5.57494834066635e-17
1614.0,1.3935362014102943e-14,5.555080714001277e-17
1615.0,1.3909213653861045e-14,5.515878998098534e-17
1616.0,1.3879830810722813e-14,5.564522474770843e-17
1617.0,1.3853457484752966e-14,5.5095041933345284e-17
1618.0,1.382438849769665e-14,5.564024448945481e-17
1619.0,1.3796406132119026e-14,5.4154692560262e-17
1620.0,1.3767370519166964e-14,5.458609731649373e-17
1621.0,1.3740869379935665e-14,5.425329168672997e-17
1622.0,1.3713112263510596e-14,5.3770791959784036e-17
1623.0,1.3685536201213005e-14,5.4138527386723404e-17
1624.0,1.3657510944585996e-14,5.3637070131343176e-17
1625.0,1.3630014527459819e-14,5.42440823447457e-17
1626.0,1.3602758673353202e-14,5.295192938568294e-17
1627.0,1.3576645015294967e-14,5.31292434220626e-17
1628.0,1.3547010133540116e-14,5.2918658104463855e-17
1629.0,1.3521683533127581e-14,5.29200832018715e-17
1630.0,1.349369109918117e-14,5.14946358548984e-17
1631.0,1.3466353780045194e-14,5.282356311209639e-17
1632.0,1.3440751125740992e-14,5.327837268437035e-17
1633.0,1.341311308015253e-14,5.1743021474246995e-17
1634.0,1.3385941422411283e-14,5.282809430994207e-17
1635.0,1.3358553464070198e-14,5.154615285808671e-17
1636.0,1.3333824352228036e-14,5.1811903018121205e-17
1637.0,1.3304394916160827e-14,5.1391605177338504e-17
1638.0,1.3279736900192221e-14,5.165464281433926e-17
1639.0,1.3252527448665009e-14,5.010812480526767e-17
1640.0,1.322556913972256e-14,5.150779261215157e-17
1641.0,1.320090504549016e-14,5.176616532591291e-17
1642.0,1.3173747608029345e-14,5.051256101147744e-17
1643.0,1.314687934340962e-14,5.145856222206936e-17
1644.0,1.3120053662978597e-14,5.0243618514732465e-17
1645.0,1.3094873882526643e-14,5.017521120136166e-17
1646.0,1.3069763081632674e-14,5.0677202599490123e-17
1647.0,1.3041676507253344e-14,5.040910776909868e-17
1648.0,1.3016254644769052e-14,5.0088987223756794e-17
1649.0,1.2991719159532054e-14,5.028425289836584e-17
1650.0,1.2965530810711365e-14,4.9397931596288886e-17
1651.0,1.2938990483736861e-14,4.933827917343181e-17
1652.0,1.2914343019332164e-14,4.9607797847298426e-17
1653.0,1.2887202743456591e-14,4.9470512788479314e-17
1654.0,1.2862635373407872e-14,4.986038933310809e-17
1655.0,1.2836737096715542e-14,4.905602603406975e-17
1656.0,1.281230353154692e-14,4.921157456981269e-17
1657.0,1.2786766610430786e-14,4.865126336229019e-17
1658.0,1.2762319202062344e-14,4.8915630892554175e-17
1659.0,1.273452731406545e-14,4.869428948468518e-17
1660.0,1.2710016968652765e-14,4.888917794571953e-17
1661.0,1.2684636673689475e-14,4.8635036896759317e-17
1662.0,1.2660200175142633e-14,4.890251508927995e-17
1663.0,1.2633533040518022e-14,4.768838508279817e-17
1664.0,1.2609008755567516e-14,4.789877737774939e-17
1665.0,1.2584468270043025e-14,4.8109590703274563e-17
1666.0,1.2560125321840498e-14,4.812680707889461e-17
1667.0,1.2535376976360404e-14,4.818983209552293e-17
1668.0,1.251094492041294e-14,4.845757536736333e-17
1669.0,1.2488777244504716e-14,4.7531442020527117e-17
1670.0,1.2464329285191015e-14,4.7750709072976746e-17
1671.0,1.243714634865237e-14,4.6195690415873637e-17
1672.0,1.2412711945067837e-14,4.646808770592545e-17
1673.0,1.2388692426035943e-14,4.6407151427281e-17
1674.0,1.236445268928289e-14,4.6324744169328465e-17
1675.0,1.2340537186783362e-14,4.644408467124127e-17
1676.0,1.231661853874832e-14,4.6564314660631544e-17
1677.0,1.2292808248035414e-14,4.6573375071499986e-17
1678.0,1.2268886844721299e-14,4.66769735330137e-17
1679.0,1.2244192039433801e-14,4.6245901029670666e-17
1680.0,1.2220575099174168e-14,4.6535854267535446e-17
1681.0,1.2196971305912115e-14,4.680848584809507e-17
1682.0,1.2173287412750608e-14,4.708709271591824e-17
1683.0,1.2147124253649762e-14,4.536591028523479e-17
1684.0,1.2123481534540362e-14,4.568174318206862e-17
1685.0,1.2099903600376102e-14,4.5928257712938223e-17
1686.0,1.2077597848303145e-14,4.552213322542693e-17
1687.0,1.2053737165406451e-14,4.5941180430258614e-17
1688.0,1.2031401548944048e-14,4.5526004058122366e-17
1689.0,1.2007907588221838e-14,4.568816575011536e-17
1690.0,1.1984483993933925e-14,4.587856535746999e-17
1691.0,1.1961067237908544e-14,4.60620589156784e-17
1692.0,1.1937194082802608e-14,4.640373259176202e-17
1693.0,1.1915467871055251e-14,4.5276637234847254e-17
1694.0,1.1891346413866606e-14,4.5486370034298434e-17
1695.0,1.1867966476572512e-14,4.532587099013842e-17
1696.0,1.1844279740746946e-14,4.5261032053092985e-17
1697.0,1.182156406318185e-14,4.4707229389656367e-17
1698.0,1.1797532360705726e-14,4.488636854661435e-17
1699.0,1.1775146844300476e-14,4.41807723605395e-17
1700.0,1.1751759691009864e-14,4.394285717497734e-17
1701.0,1.172760682573076e-14,4.417121445238796e-17
1702.0,1.1708986859463186e-14,4.4731444862697305e-17
1703.0,1.1685166256739022e-14,4.4799234790621806e-17
1704.0,1.166301328834848e-14,4.400368639661128e-17
1705.0,1.1638996529345003e-14,4.410492289374444e-17
1706.0,1.161605275325676e-14,4.3682225651040886e-17
1707.0,1.1594936895444261e-14,4.4093095369903555e-17
1708.0,1.1572677609482249e-14,4.362839446751365e-17
1709.0,1.1550359363292649e-14,4.4048315963213985e-17
1710.0,1.1526607798457454e-14,4.400179420057432e-17
1711.0,1.150466404281656e-14,4.3094468341383176e-17
1712.0,1.148371391004459e-14,4.4871828495302384e-17
1713.0,1.146201229134888e-14,4.383789577063428e-17
1714.0,1.1438906569661239e-14,4.3584323839086224e-17
1715.0,1.1416846545506079e-14,4.292225327136707e-17
1716.0,1.1396535400193747e-14,4.342371606501395e-17
1717.0,1.1373859911460551e-14,4.3604800451852816e-17
1718.0,1.1351094740460703e-14,4.398405138572236e-17
1719.0,1.1329855690316724e-14,4.283553090860939e-17
1720.0,1.1307050466243068e-14,4.2579010963883286e-17
1721.0,1.1286323762279055e-14,4.277777573814989e-17
1722.0,1.1265607249579166e-14,4.3116802442520896e-17
1723.0,1.1242884113117552e-14,4.280621711352868e-17
1724.0,1.122161446661176e-14,4.1675493132906665e-17
1725.0,1.1201055894363794e-14,4.3565657075593564e-17
1726.0,1.117959336164219e-14,4.255138082939546e-17
1727.0,1.1157147414546487e-14,4.2035182942564544e-17
1728.0,1.113664530688843e-14,4.272535765800449e-17
1729.0,1.1115852432618524e-14,4.252711443913667e-17
1730.0,1.1092646758681207e-14,4.240626413855591e-17
1731.0,1.1071914274991557e-14,4.165615185466062e-17
1732.0,1.1051434011365008e-14,4.2826007563181585e-17
1733.0,1.102940854451329e-14,4.212443705742259e-17
