wave,flux,flux_err
1350.0,8.258879373254899e-15,4.529529074535016e-17
1351.0,8.242122057702306e-15,4.6228633968290065e-17
1352.0,8.22535019526401e-15,4.7159278907895803e-17
1353.0,8.206707360755681e-15,4.805604352336875e-17
1354.0,8.185489819443904e-15,4.685181292434089e-17
1355.0,8.167600168877629e-15,5.021869591940516e-17
1356.0,8.150625907150926e-15,5.108962050080618e-17
1357.0,8.13003266482285e-15,4.666796664859675e-17
1358.0,8.112523236559301e-15,4.667403108017437e-17
1359.0,8.095621143524046e-15,4.759414834255556e-17
1360.0,8.078684323100566e-15,4.8501905868834805e-17
1361.0,8.06145809082298e-15,4.930580877511956e-17
1362.0,8.04077293445668e-15,4.471296979080547e-17
1363.0,8.023321374859349e-15,4.493424765053612e-17
1364.0,8.006344180506481e-15,4.584479884619201e-17
1365.0,7.989289954515583e-15,4.6741643295957285e-17
1366.0,7.972127272356711e-15,4.759950639467152e-17
1367.0,7.954949274241573e-15,4.845748306476242e-17
1368.0,7.936469855868942e-15,4.7283487481857464e-17
1369.0,7.917676395704447e-15,4.5653543847487273e-17
1370.0,7.899479928189423e-15,4.49462547478212e-17
1371.0,7.88236391440874e-15,4.5846675620869145e-17
1372.0,7.865232759276399e-15,4.674562999566237e-17
1373.0,7.847957576514902e-15,4.759748455126808e-17
1374.0,7.83065368862204e-15,4.844392518844033e-17
1375.0,7.8134109905252e-15,4.9310646182199563e-17
1376.0,7.797365046717638e-15,4.751465764730299e-17
1377.0,7.77897109683887e-15,5.109629493162431e-17
1378.0,7.761713546064531e-15,4.552744748309991e-17
1379.0,7.743905325568567e-15,4.1187564886415146e-17
1380.0,7.725818956937083e-15,4.323213833869637e-17
1381.0,7.71012273060722e-15,4.4106289197467044e-17
1382.0,7.691249552957765e-15,4.2680327190791597e-17
1383.0,7.6742005092349e-15,4.355177981855686e-17
1384.0,7.65747742779449e-15,4.441036124936525e-17
1385.0,7.640768050158706e-15,4.52658995262113e-17
1386.0,7.624590446134421e-15,4.6488339156932464e-17
1387.0,7.608126972080756e-15,4.6007453252264505e-17
1388.0,7.591352466962996e-15,4.5920204520341326e-17
1389.0,7.574875913618848e-15,4.5504193191970423e-17
1390.0,7.558349260581437e-15,4.6327840342194696e-17
1391.0,7.541665208004457e-15,4.577621623160383e-17
1392.0,7.525238227697447e-15,4.655789609431184e-17
1393.0,7.507017556282611e-15,4.383290395174725e-17
1394.0,7.492154992942565e-15,4.5982480394571567e-17
1395.0,7.474036137833e-15,4.3762087563096184e-17
1396.0,7.459185312672573e-15,4.6514676096769654e-17
1397.0,7.441143084647084e-15,4.4165164223932866e-17
1398.0,7.426204608156861e-15,4.614782097301445e-17
1399.0,7.408223648987675e-15,4.32306648987789e-17
1400.0,7.393224767990428e-15,4.584197783468673e-17
1401.0,7.376832527459118e-15,4.4971170521649397e-17
1402.0,7.36041854223717e-15,4.493782845306332e-17
1403.0,7.3438292429837e-15,4.4032532676266443e-17
1404.0,7.327574284934664e-15,4.3912678991624853e-17
1405.0,7.311128382169512e-15,4.3789519004850297e-17
1406.0,7.29464999702342e-15,4.287512029412674e-17
1407.0,7.27840184894668e-15,4.2281673555317967e-17
1408.0,7.262692972886224e-15,4.2824185884942823e-17
1409.0,7.246823018122301e-15,4.3033844042543765e-17
1410.0,7.230683231440185e-15,4.251157578863219e-17
1411.0,7.21490243302834e-15,4.279479794041827e-17
1412.0,7.198848341230648e-15,4.2109311340093674e-17
1413.0,7.183017426071124e-15,4.236882750317476e-17
1414.0,7.16734219626517e-15,4.231907951702401e-17
1415.0,7.151489748792558e-15,4.228727000913557e-17
1416.0,7.135947032714803e-15,4.2351440548690705e-17
1417.0,7.120048839290598e-15,4.198439765220375e-17
1418.0,7.10432271406284e-15,4.156327921870451e-17
1419.0,7.0888523714484145e-15,4.199232768749672e-17
1420.0,7.0734278980658044e-15,4.159733247395536e-17
1421.0,7.0576126459357786e-15,4.1682848707333255e-17
1422.0,7.042192695754957e-15,4.1319338001656274e-17
1423.0,7.026817093297489e-15,4.130960821301916e-17
1424.0,7.0114878348906815e-15,4.1550831074142575e-17
1425.0,6.996130334144468e-15,4.164710401801674e-17
1426.0,6.980674144227121e-15,4.1278974387599214e-17
1427.0,6.9652110494395664e-15,4.0911761019354857e-17
1428.0,6.949997417609592e-15,4.092632616429016e-17
1429.0,6.934737568046638e-15,4.086899868762272e-17
1430.0,6.9197811961147965e-15,4.1291196878189323e-17
1431.0,6.90438883808812e-15,4.071813674643065e-17
1432.0,6.889038631518284e-15,3.988110123651955e-17
1433.0,6.874277834632736e-15,4.062775454384898e-17
1434.0,6.859286964073288e-15,3.9960691464152747e-17
1435.0,6.8442925564559976e-15,4.0396142102990107e-17
1436.0,6.829151040415831e-15,3.954291645388991e-17
1437.0,6.814372775844321e-15,4.034100434846124e-17
1438.0,6.79949544379298e-15,3.9869361469841913e-17
1439.0,6.784617375679398e-15,3.9463331985769163e-17
1440.0,6.7696169073334974e-15,3.9940632924250484e-17
1441.0,6.755027566945809e-15,3.995893495924979e-17
1442.0,6.740001817301454e-15,3.93512388982948e-17
1443.0,6.725375435999165e-15,3.9362400967634843e-17
1444.0,6.710760269658314e-15,3.9379937136874584e-17
1445.0,6.6961401338284816e-15,3.9399672832856426e-17
1446.0,6.681494273655154e-15,3.939635351511486e-17
1447.0,6.6669996733054894e-15,3.9126253817185123e-17
1448.0,6.652489245077665e-15,3.8781618003625057e-17
1449.0,6.6378272604173466e-15,3.87957979119039e-17
1450.0,6.623366586596512e-15,3.8315818695681596e-17
1451.0,6.6090705715492935e-15,3.9193775630088837e-17
1452.0,6.594721761410643e-15,3.9187131198313883e-17
1453.0,6.5803848890454015e-15,3.812675791707919e-17
1454.0,6.5659706594635726e-15,3.804561096712132e-17
1455.0,6.551671941627718e-15,3.8123418985858137e-17
1456.0,6.537284552956148e-15,3.811343315641506e-17
1457.0,6.523191134965651e-15,3.8336524585576953e-17
1458.0,6.508808262181409e-15,3.7439155680693915e-17
1459.0,6.494688186904497e-15,3.785232306344211e-17
1460.0,6.4806931378739696e-15,3.7381802866246676e-17
1461.0,6.4665519623075915e-15,3.776206847313837e-17
1462.0,6.452578511873616e-15,3.7334488293513096e-17
1463.0,6.438406349674036e-15,3.746904081155817e-17
1464.0,6.424694176582333e-15,3.766659463477433e-17
1465.0,6.410497710469839e-15,3.694760253738566e-17
1466.0,6.3965899666465634e-15,3.665270455154139e-17
1467.0,6.382775585107096e-15,3.6931301393192426e-17
1468.0,6.3690068575079855e-15,3.651194308657767e-17
1469.0,6.355237113725556e-15,3.715991216748047e-17
1470.0,6.341051531498951e-15,3.6116265867307326e-17
1471.0,6.327283068833566e-15,3.570455429894393e-17
1472.0,6.3137271019865686e-15,3.596726238695087e-17
1473.0,6.30040776871585e-15,3.6607068557169234e-17
1474.0,6.286609060683688e-15,3.654914502231545e-17
1475.0,6.272898306666894e-15,3.626694246418624e-17
1476.0,6.259296180623015e-15,3.579479376233686e-17
1477.0,6.245908192659162e-15,3.6346209131835185e-17
1478.0,6.232333595814855e-15,3.565211762064348e-17
1479.0,6.2190497066388175e-15,3.558182845087753e-17
1480.0,6.205381270425816e-15,3.5517608545008763e-17
1481.0,6.191855621872997e-15,3.5457879343793883e-17
1482.0,6.178604277687027e-15,3.56764587840364e-17
1483.0,6.165297015928684e-15,3.5216350322722867e-17
1484.0,6.152107356470733e-15,3.520358579533173e-17
1485.0,6.1384587429579864e-15,3.4607550355810066e-17
1486.0,6.1254294580180595e-15,3.500297749122734e-17
1487.0,6.1121141727872805e-15,3.50018429274245e-17
1488.0,6.09915568441275e-15,3.510169291316294e-17
1489.0,6.085736020873016e-15,3.4264896076170205e-17
1490.0,6.072853086741475e-15,3.4928227107897236e-17
1491.0,6.0595877678723056e-15,3.4365390147628745e-17
1492.0,6.04643488678924e-15,3.419105097948727e-17
1493.0,6.033555841945539e-15,3.379576256984071e-17
1494.0,6.02067827692437e-15,3.4470110624844176e-17
1495.0,6.007812769335197e-15,3.4082878207035997e-17
1496.0,5.994724417225019e-15,3.4200642632760417e-17
1497.0,5.982022870483189e-15,3.4363341474934235e-17
1498.0,5.969122278213911e-15,3.397176882809585e-17
1499.0,5.956206841675224e-15,3.357408396197748e-17
1500.0,5.943309921876865e-15,3.318587240846283e-17
1501.0,5.9304057271595636e-15,3.288776019478938e-17
1502.0,5.917693373053174e-15,3.3087920102873536e-17
1503.0,5.905056336772236e-15,3.3403002003780785e-17
1504.0,5.89231796678024e-15,3.2642294318382706e-17
1505.0,5.879706843753684e-15,3.271565236111698e-17
1506.0,5.867249854850095e-15,3.3031878627477444e-17
1507.0,5.854357468360285e-15,3.273828189459293e-17
1508.0,5.8418932833549696e-15,3.298572901650694e-17
1509.0,5.8293983342665115e-15,3.2245123197270614e-17
1510.0,5.8168481258285976e-15,3.246811027737177e-17
1511.0,5.8045378054484176e-15,3.272855442373338e-17
1512.0,5.7922044844863566e-15,3.248190057854009e-17
1513.0,5.7796709805395904e-15,3.194911991150966e-17
1514.0,5.767097420654334e-15,3.1868523581398665e-17
1515.0,5.754876893952048e-15,3.1533296479220055e-17
1516.0,5.742670029064767e-15,3.2282660908099357e-17
1517.0,5.73031779981949e-15,3.175550880304484e-17
1518.0,5.717965002328992e-15,3.122301934763939e-17
1519.0,5.705737489867191e-15,3.089105994483029e-17
1520.0,5.693544170148722e-15,3.169883935474579e-17
1521.0,5.681459460334533e-15,3.153868765083054e-17
1522.0,5.669340567348891e-15,3.0975368872476814e-17
1523.0,5.657140970442469e-15,3.1383566244984653e-17
1524.0,5.6452175309694504e-15,3.1091631885810025e-17
1525.0,5.633036351038068e-15,3.0481103634383445e-17
1526.0,5.6211609986687055e-15,3.137354625539798e-17
1527.0,5.6090735820677034e-15,3.087685933910212e-17
1528.0,5.597124919515373e-15,3.058190346277671e-17
1529.0,5.585158803489002e-15,3.0285941530728114e-17
1530.0,5.572952217813559e-15,2.964803719353843e-17
1531.0,5.561378131526854e-15,2.9941846219257505e-17
1532.0,5.549665956575281e-15,3.00296161734178e-17
1533.0,5.537968329747966e-15,3.0146630397694276e-17
1534.0,5.5260618833423865e-15,2.996833690257025e-17
1535.0,5.514149747548535e-15,2.978871758461625e-17
1536.0,5.5025624879874695e-15,3.0117231615767243e-17
1537.0,5.490744623254561e-15,3.0077186279802717e-17
1538.0,5.479113018358236e-15,2.922337387798597e-17
1539.0,5.467602809285977e-15,2.968136514360494e-17
1540.0,5.455689729433084e-15,2.9512111110988164e-17
1541.0,5.444399783031459e-15,2.91953332995914e-17
1542.0,5.432518858232913e-15,2.9116276566217825e-17
1543.0,5.421293593835359e-15,2.8898683306087484e-17
1544.0,5.409357070629991e-15,2.8726063684029954e-17
1545.0,5.3980988394587745e-15,2.850290796707921e-17
1546.0,5.38685455920343e-15,2.935776517000896e-17
1547.0,5.375349349124126e-15,2.875821492800311e-17
1548.0,5.363642196879448e-15,2.7891540052056126e-17
1549.0,5.352381811633325e-15,2.874532007762059e-17
1550.0,5.341095512483707e-15,2.8473512524669264e-17
1551.0,5.329610527006768e-15,2.7944334543121155e-17
1552.0,5.318403781721919e-15,2.7802462151727935e-17
1553.0,5.307073410780166e-15,2.7497590749475437e-17
1554.0,5.2957948021827654e-15,2.7701006858011387e-17
1555.0,5.284951355929317e-15,2.792275750233792e-17
1556.0,5.2736754813608436e-15,2.750453370808026e-17
1557.0,5.262431246418535e-15,2.734002661199782e-17
1558.0,5.251323409826967e-15,2.7183238887981683e-17
1559.0,5.240179445528972e-15,2.741079924799219e-17
1560.0,5.229155902076909e-15,2.7656633169715016e-17
1561.0,5.218123581157549e-15,2.742673060003685e-17
1562.0,5.207094895901091e-15,2.7196137601050795e-17
1563.0,5.196054461874996e-15,2.696443187847753e-17
1564.0,5.185018436618255e-15,2.6732668026555458e-17
1565.0,5.174429248209712e-15,2.7154265421655165e-17
1566.0,5.1633731880467555e-15,2.6921445767106328e-17
1567.0,5.152317880228111e-15,2.668819105697436e-17
1568.0,5.141581516260175e-15,2.69390853189843e-17
1569.0,5.130822253594486e-15,2.6478597205649607e-17
1570.0,5.119859770196041e-15,2.6282106618255683e-17
1571.0,5.109225756173952e-15,2.6364976960772725e-17
1572.0,5.098421175094081e-15,2.650132788940671e-17
1573.0,5.0878117532233786e-15,2.5866883083231302e-17
1574.0,5.076850667025876e-15,2.5799455501163084e-17
1575.0,5.066362425037683e-15,2.6152004538111392e-17
1576.0,5.0557316532556135e-15,2.578285778285945e-17
1577.0,5.044782208515935e-15,2.5214114094495144e-17
1578.0,5.03425941183985e-15,2.5698972339917234e-17
1579.0,5.0238895453598726e-15,2.6082900581136485e-17
1580.0,5.013406093796404e-15,2.564701933634156e-17
1581.0,5.002848751265095e-15,2.5182681332904327e-17
1582.0,4.992049345571628e-15,2.5283287525379468e-17
1583.0,4.981717386068895e-15,2.5158299995557585e-17
1584.0,4.971187270324386e-15,2.471622136301313e-17
1585.0,4.960862839006377e-15,2.5170833830344567e-17
1586.0,4.9504152392346824e-15,2.4696207297721345e-17
1587.0,4.9400514992329124e-15,2.5054467108728268e-17
1588.0,4.929703025008035e-15,2.4856251565746047e-17
1589.0,4.919389607526627e-15,2.4706895127189742e-17
1590.0,4.909017555383192e-15,2.4511108056060565e-17
1591.0,4.898667999284327e-15,2.4325517605724848e-17
1592.0,4.888682046259078e-15,2.4455378102297512e-17
1593.0,4.878294476016348e-15,2.4233751088252454e-17
1594.0,4.868104826957203e-15,2.4210762223945637e-17
1595.0,4.857952560592063e-15,2.414877368046819e-17
1596.0,4.847768633558766e-15,2.4075822959470045e-17
1597.0,4.8375991354852714e-15,2.4110488344110027e-17
1598.0,4.8274408348271054e-15,2.389749007969081e-17
1599.0,4.817614286927265e-15,2.4042165554448746e-17
1600.0,4.8074692122293416e-15,2.3843676678324644e-17
1601.0,4.7974053382423375e-15,2.380353911601965e-17
1602.0,4.787232148632111e-15,2.369791876315025e-17
1603.0,4.777436781745537e-15,2.3712768505797863e-17
1604.0,4.767327713608693e-15,2.3644504652845624e-17
1605.0,4.7575617698965926e-15,2.3879826926258656e-17
1606.0,4.747441537180332e-15,2.3599698198882265e-17
1607.0,4.737255834004724e-15,2.3527746513857252e-17
1608.0,4.727766309467256e-15,2.342616758353655e-17
1609.0,4.718017033328493e-15,2.3441241685391596e-17
1610.0,4.707892464962818e-15,2.3378396983591276e-17
1611.0,4.698303117138318e-15,2.334737049834609e-17
1612.0,4.688274725255156e-15,2.3240316208148878e-17
1613.0,4.6785226379325475e-15,2.327323653344096e-17
1614.0,4.6689273091933704e-15,2.3149485471386032e-17
1615.0,4.659169741654374e-15,2.320913367957185e-17
1616.0,4.649406456057116e-15,2.3025858340514083e-17
1617.0,4.6398157722914056e-15,2.3020498548512937e-17
1618.0,4.630193930325737e-15,2.2989513016391738e-17
1619.0,4.620732527904039e-15,2.2934277437483865e-17
1620.0,4.610944212802365e-15,2.2926525331509373e-17
1621.0,4.601474314964896e-15,2.2851729620593108e-17
1622.0,4.591999391330356e-15,2.277674613828776e-17
1623.0,4.582303151562251e-15,2.277822295710046e-17
1624.0,4.572734246908722e-15,2.2736102693193675e-17
1625.0,4.563248719204246e-15,2.2660940105997198e-17
1626.0,4.5537747818662435e-15,2.2616605413410707e-17
1627.0,4.544349370300085e-15,2.2528469759464472e-17
1628.0,4.535201950678588e-15,2.250758619526184e-17
1629.0,4.52569250975153e-15,2.2434234022796838e-17
1630.0,4.516190283132224e-15,2.232575102085708e-17
1631.0,4.5067128808504525e-15,2.229705815559525e-17
1632.0,4.497629461013106e-15,2.232077311633703e-17
1633.0,4.48811400587539e-15,2.221073628676712e-17
1634.0,4.479068057637408e-15,2.2223723415977935e-17
1635.0,4.469799672097872e-15,2.2195576300823125e-17
1636.0,4.460527114511573e-15,2.2129885135792668e-17
1637.0,4.451210449836833e-15,2.202080377932833e-17
1638.0,4.441907108429346e-15,2.1948478803244405e-17
1639.0,4.4330103297279335e-15,2.196919173912321e-17
1640.0,4.423720665506494e-15,2.190439827465632e-17
1641.0,4.41443742540533e-15,2.1840782886487753e-17
1642.0,4.4055020674315296e-15,2.182237621861007e-17
1643.0,4.396189935067121e-15,2.178763413089965e-17
1644.0,4.387291938574554e-15,2.1773218710696824e-17
1645.0,4.3779771511404624e-15,2.1711090392658237e-17
1646.0,4.369072504743603e-15,2.169669146965423e-17
1647.0,4.360047076659651e-15,2.1593300014076428e-17
1648.0,4.351135962733454e-15,2.1578735442666333e-17
1649.0,4.342243236663845e-15,2.157679040946683e-17
1650.0,4.3330566069276906e-15,2.1438349369355187e-17
1651.0,4.324285658700343e-15,2.145859562451317e-17
1652.0,4.315392723052193e-15,2.1456580131638274e-17
1653.0,4.306294597210277e-15,2.123995479264882e-17
1654.0,4.297415130764402e-15,2.1303978790958975e-17
1655.0,4.288779138605253e-15,2.1230907057668374e-17
1656.0,4.279892231358713e-15,2.125838654147174e-17
1657.0,4.2712180754571216e-15,2.1138551100868405e-17
1658.0,4.262321293370015e-15,2.116591106313505e-17
1659.0,4.253675705183232e-15,2.1081590092262554e-17
1660.0,4.244854327096756e-15,2.1089071433714422e-17
1661.0,4.236140148442368e-15,2.1042241157863766e-17
1662.0,4.227488303035176e-15,2.0934705495931336e-17
1663.0,4.2188484279455386e-15,2.0884169937993315e-17
1664.0,4.209982308084648e-15,2.0894269086704722e-17
1665.0,4.201270761784162e-15,2.0778215065954857e-17
1666.0,4.192623956869126e-15,2.0696040563486285e-17
1667.0,4.184002421192759e-15,2.066492264418398e-17
1668.0,4.175789313328869e-15,2.071646520078631e-17
1669.0,4.166857253051764e-15,2.0706369819159922e-17
1670.0,4.158197879350796e-15,2.0629816118623436e-17
1671.0,4.149927208553976e-15,2.0614926795481315e-17
1672.0,4.1413187749988824e-15,2.055159928965903e-17
1673.0,4.132645896871118e-15,2.047334022342475e-17
1674.0,4.124181665039935e-15,2.0394408485317838e-17
1675.0,4.116158723419361e-15,2.0375823553054793e-17
1676.0,4.107687614796734e-15,2.028466775612641e-17
1677.0,4.099110372770093e-15,2.032087339296187e-17
1678.0,4.090596065726404e-15,2.024111445057891e-17
1679.0,4.082221848854098e-15,2.0167332112569633e-17
1680.0,4.073979704226464e-15,2.0191010300226647e-17
1681.0,4.0655336644680456e-15,2.0162095872490148e-17
1682.0,4.0574822639895475e-15,2.0143918345270314e-17
1683.0,4.049005464235167e-15,2.0063406709134386e-17
1684.0,4.04054221457348e-15,1.9981026304657226e-17
1685.0,4.032500987860925e-15,1.999237093615747e-17
1686.0,4.024001217146568e-15,1.9879825877255842e-17
1687.0,4.0161067656654305e-15,1.987959852549388e-17
1688.0,4.007581575852379e-15,1.9774264296778354e-17
1689.0,3.999722152249087e-15,1.976307590494749e-17
1690.0,3.991303546058739e-15,1.968135496108102e-17
1691.0,3.9832030459201115e-15,1.967688154551867e-17
1692.0,3.9751604997373925e-15,1.9743319603485212e-17
1693.0,3.9672642145067455e-15,1.9621412930729006e-17
1694.0,3.9588723706180086e-15,1.9550972188870377e-17
1695.0,3.950827019064449e-15,1.9572103916816475e-17
1696.0,3.9429188148429914e-15,1.9510895980493247e-17
1697.0,3.934751982717992e-15,1.9446183887326115e-17
1698.0,3.926761667330487e-15,1.9418034893959095e-17
1699.0,3.9187337950972884e-15,1.935313571897252e-17
1700.0,3.9106959909538805e-15,1.9303973341327607e-17
1701.0,3.902872276838039e-15,1.926144627367185e-17
1702.0,3.894806956631296e-15,1.9255253924904356e-17
1703.0,3.8869978442093845e-15,1.9186901297460954e-17
1704.0,3.879182690771519e-15,1.9119264336492075e-17
1705.0,3.871194026306035e-15,1.9118369848960436e-17
1706.0,3.8632946562644175e-15,1.9083087207269214e-17
1707.0,3.855479925465227e-15,1.9013999550539228e-17
1708.0,3.847563425360325e-15,1.898235073352465e-17
1709.0,3.839677765522561e-15,1.8994216665600774e-17
1710.0,3.831823558973056e-15,1.8919403550778926e-17
1711.0,3.824378131773557e-15,1.8899230115342052e-17
1712.0,3.816550573239246e-15,1.883680582037628e-17
1713.0,3.808753587752723e-15,1.8768531296146857e-17
1714.0,3.800840146501254e-15,1.8762710109055722e-17
1715.0,3.793263654123819e-15,1.8710143508794354e-17
1716.0,3.78549454582329e-15,1.868947913855769e-17
1717.0,3.777932327546148e-15,1.8608986118513296e-17
1718.0,3.7702048736417846e-15,1.8525410781863222e-17
1719.0,3.7623171224333934e-15,1.8566996575507953e-17
1720.0,3.755028484929117e-15,1.8552201126463534e-17
1721.0,3.747214639355906e-15,1.8498667576104747e-17
1722.0,3.739781214866347e-15,1.8472538675899463e-17
1723.0,3.7321204369735765e-15,1.8373180218755792e-17
1724.0,3.7244698600227314e-15,1.8301816044936048e-17
1725.0,3.7172073465265105e-15,1.8356416845652047e-17
1726.0,3.709626079158178e-15,1.828937518612346e-17
1727.0,3.701971572898822e-15,1.8212718079240448e-17
1728.0,3.694466197570403e-15,1.8183672545929604e-17
1729.0,3.6871154012298656e-15,1.8189856925652836e-17
1730.0,3.67945536700738e-15,1.8124731847821123e-17
1731.0,3.672229337357684e-15,1.812987597685254e-17
1732.0,3.6646936189926784e-15,1.804230252723992e-17
1733.0,3.657437252039472e-15,1.7965544015586177e-17
1734.0,3.6501501806133365e-15,1.7979622159701576e-17
1735.0,3.642788538226424e-15,1.7972267332022422e-17
